-5.439104980468750000e+03 -3.117095947265625000e+02 -4.696823046875000000e+04 -1.249356054687500000e+04 -1.032782714843750000e+04 -2.573974609375000000e+04 6.938331542968750000e+03 5.713324218750000000e+03
-5.802470703125000000e+03 -4.276180114746093750e+02 -4.337916406250000000e+04 -1.512904980468750000e+04 -1.189443359375000000e+04 -2.177447851562500000e+04 7.950831542968750000e+03 6.094537597656250000e+03
-5.525022949218750000e+03 -8.022581176757812500e+02 -3.574468359375000000e+04 -1.633534472656250000e+04 -1.218301464843750000e+04 -1.567215234375000000e+04 8.580801757812500000e+03 5.799711914062500000e+03
-4.411143554687500000e+03 -1.326320434570312500e+03 -2.433715234375000000e+04 -1.596780566406250000e+04 -1.115729589843750000e+04 -7.970325683593750000e+03 8.879280273437500000e+03 4.858629394531250000e+03
-2.871133056640625000e+03 -1.994339233398437500e+03 -1.081325878906250000e+04 -1.404412500000000000e+04 -9.101095703125000000e+03 4.952425231933593750e+02 8.414202148437500000e+03 3.217746826171875000e+03
-1.259439575195312500e+03 -2.513640869140625000e+03 3.479641113281250000e+03 -1.057199707031250000e+04 -6.464156738281250000e+03 8.650634765625000000e+03 6.920478515625000000e+03 1.362060791015625000e+03
4.565907897949218750e+02 -2.314660400390625000e+03 1.819791210937500000e+04 -6.052150878906250000e+03 -3.631456298828125000e+03 1.630726367187500000e+04 4.422310546875000000e+03 -1.934691467285156250e+02
2.258087402343750000e+03 -1.452271362304687500e+03 3.127046093750000000e+04 -1.157009033203125000e+03 -2.656456298828125000e+02 2.253680859375000000e+04 1.014066772460937500e+03 -1.697108764648437500e+03
4.077454589843750000e+03 -5.542083129882812500e+02 4.020333203125000000e+04 3.665752685546875000e+03 3.520556640625000000e+03 2.583205078125000000e+04 -2.497207763671875000e+03 -3.335893798828125000e+03
5.535620117187500000e+03 3.287085876464843750e+02 4.537611328125000000e+04 8.076003417968750000e+03 6.769020507812500000e+03 2.657539648437500000e+04 -5.524394531250000000e+03 -4.566395507812500000e+03
6.473104492187500000e+03 1.236862426757812500e+03 4.637959765625000000e+04 1.169498437500000000e+04 9.216131835937500000e+03 2.501672851562500000e+04 -8.107327148437500000e+03 -5.206211425781250000e+03
6.917754394531250000e+03 1.854952392578125000e+03 4.228612500000000000e+04 1.417416894531250000e+04 1.091163574218750000e+04 2.087976953125000000e+04 -9.865967773437500000e+03 -5.454164550781250000e+03
6.750392578125000000e+03 2.060096191406250000e+03 3.383437890625000000e+04 1.522230957031250000e+04 1.144338085937500000e+04 1.457395019531250000e+04 -1.026873730468750000e+04 -5.295087890625000000e+03
6.194604492187500000e+03 1.881006347656250000e+03 2.216284960937500000e+04 1.481590820312500000e+04 1.076564257812500000e+04 6.885334472656250000e+03 -9.295226562500000000e+03 -4.665171875000000000e+03
5.336291992187500000e+03 1.574790283203125000e+03 9.227025390625000000e+03 1.314176171875000000e+04 8.966251953125000000e+03 -9.649753417968750000e+02 -7.480209472656250000e+03 -3.426524414062500000e+03
4.030816650390625000e+03 1.266558349609375000e+03 -4.261511230468750000e+03 1.014990625000000000e+04 6.220620117187500000e+03 -8.550341796875000000e+03 -5.237251953125000000e+03 -1.775555908203125000e+03
2.506280029296875000e+03 5.716569213867187500e+02 -1.812628320312500000e+04 6.013077636718750000e+03 3.131312744140625000e+03 -1.567486718750000000e+04 -2.377371582031250000e+03 -2.259516601562500000e+02
9.102380981445312500e+02 -3.635691528320312500e+02 -2.997745117187500000e+04 1.257165283203125000e+03 -2.615745849609375000e+02 -2.108106640625000000e+04 8.916721191406250000e+02 1.263814819335937500e+03
-8.320074462890625000e+02 -7.641611938476562500e+02 -3.787695312500000000e+04 -3.494708007812500000e+03 -3.828826660156250000e+03 -2.394286523437500000e+04 3.583083984375000000e+03 2.965211181640625000e+03
-2.459354492187500000e+03 -6.404813842773437500e+02 -4.221532031250000000e+04 -7.715135742187500000e+03 -6.763634765625000000e+03 -2.461446093750000000e+04 5.314191406250000000e+03 4.557738281250000000e+03
-3.672948242187500000e+03 -3.700715332031250000e+02 -4.286891406250000000e+04 -1.122631738281250000e+04 -8.825409179687500000e+03 -2.319310351562500000e+04 6.455807128906250000e+03 5.700238769531250000e+03
-4.459444824218750000e+03 -2.492716979980468750e+02 -3.958889843750000000e+04 -1.384068554687500000e+04 -1.017042871093750000e+04 -1.957333398437500000e+04 7.241420410156250000e+03 6.057557128906250000e+03
-4.875396484375000000e+03 -4.917763977050781250e+02 -3.275732812500000000e+04 -1.501127050781250000e+04 -1.067991503906250000e+04 -1.404998535156250000e+04 7.823488769531250000e+03 5.561346191406250000e+03
-5.001113281250000000e+03 -9.707324829101562500e+02 -2.250921679687500000e+04 -1.448353417968750000e+04 -1.020081542968750000e+04 -7.134034667968750000e+03 8.088807617187500000e+03 4.487921875000000000e+03
-4.753395507812500000e+03 -1.601350585937500000e+03 -1.019842382812500000e+04 -1.266612500000000000e+04 -8.483464843750000000e+03 4.295108642578125000e+02 7.576385742187500000e+03 2.806725585937500000e+03
-3.996584228515625000e+03 -2.046959472656250000e+03 2.949803710937500000e+03 -9.786185546875000000e+03 -5.842264648437500000e+03 7.836081542968750000e+03 6.126989257812500000e+03 8.980355834960937500e+02
-2.902801757812500000e+03 -1.810784667968750000e+03 1.667141210937500000e+04 -5.888462890625000000e+03 -2.895085205078125000e+03 1.479679882812500000e+04 3.706938720703125000e+03 -6.525848388671875000e+02
-1.502672485351562500e+03 -1.061198364257812500e+03 2.874460546875000000e+04 -1.272836791992187500e+03 4.568486938476562500e+02 2.045624023437500000e+04 4.452764282226562500e+02 -2.061719482421875000e+03
3.498956680297851562e+01 -2.730366821289062500e+02 3.695367968750000000e+04 3.462518554687500000e+03 4.049436767578125000e+03 2.344153515625000000e+04 -2.861010986328125000e+03 -3.475766113281250000e+03
1.219253662109375000e+03 5.478596801757812500e+02 4.154123437500000000e+04 7.568976562500000000e+03 6.957163574218750000e+03 2.414367382812500000e+04 -5.669584960937500000e+03 -4.481968261718750000e+03
2.229063476562500000e+03 1.282105712890625000e+03 4.212103906250000000e+04 1.081901464843750000e+04 8.902912109375000000e+03 2.271762695312500000e+04 -7.895971191406250000e+03 -5.067487792968750000e+03
2.987934814453125000e+03 1.760491821289062500e+03 3.847084765625000000e+04 1.311349511718750000e+04 1.031416406250000000e+04 1.881326562500000000e+04 -9.315195312500000000e+03 -5.261623535156250000e+03
2.949595458984375000e+03 1.918932373046875000e+03 3.092329882812500000e+04 1.414685644531250000e+04 1.060995410156250000e+04 1.307411523437500000e+04 -9.545126953125000000e+03 -5.029837402343750000e+03
2.316876708984375000e+03 1.608042968750000000e+03 2.021297656250000000e+04 1.385666113281250000e+04 9.594041992187500000e+03 6.187534179687500000e+03 -8.457161132812500000e+03 -4.379453613281250000e+03
1.378844726562500000e+03 1.275952148437500000e+03 8.432562500000000000e+03 1.217875292968750000e+04 8.110035156250000000e+03 -8.525173950195312500e+02 -6.587088378906250000e+03 -3.121155273437500000e+03
1.975403442382812500e+02 1.151536376953125000e+03 -3.914535644531250000e+03 9.328560546875000000e+03 5.832116210937500000e+03 -7.697704589843750000e+03 -4.304881835937500000e+03 -1.511376831054687500e+03
-9.830808715820312500e+02 6.892914428710937500e+02 -1.667208789062500000e+04 5.591460937500000000e+03 2.628770263671875000e+03 -1.438495214843750000e+04 -1.622839965820312500e+03 2.433535766601562500e+01
-1.944357788085937500e+03 -3.765489196777343750e+01 -2.736963476562500000e+04 1.196641357421875000e+03 -5.119249267578125000e+02 -1.944729296875000000e+04 1.316716308593750000e+03 1.475397094726562500e+03
-2.818569824218750000e+03 -3.465234069824218750e+02 -3.427403515625000000e+04 -3.162321777343750000e+03 -3.505346679687500000e+03 -2.185300195312500000e+04 3.874418457031250000e+03 3.009008789062500000e+03
-3.719001953125000000e+03 -2.059051818847656250e+02 -3.814127734375000000e+04 -7.124433105468750000e+03 -6.386906738281250000e+03 -2.248456835937500000e+04 5.428363769531250000e+03 4.472812988281250000e+03
-4.185771484375000000e+03 3.602261734008789062e+01 -3.885171093750000000e+04 -1.040945996093750000e+04 -8.403837890625000000e+03 -2.140932617187500000e+04 6.389511718750000000e+03 5.501653808593750000e+03
-3.977607421875000000e+03 1.505812072753906250e+02 -3.583966796875000000e+04 -1.251661132812500000e+04 -9.537411132812500000e+03 -1.814021289062500000e+04 7.052714843750000000e+03 5.832052734375000000e+03
-3.397244384765625000e+03 -9.998532104492187500e+01 -2.955547460937500000e+04 -1.336976562500000000e+04 -9.862462890625000000e+03 -1.305109570312500000e+04 7.450476074218750000e+03 5.390666992187500000e+03
-2.468450195312500000e+03 -6.808456420898437500e+02 -2.025173046875000000e+04 -1.299231640625000000e+04 -9.215559570312500000e+03 -6.546083984375000000e+03 7.632336425781250000e+03 4.342607421875000000e+03
-1.205682250976562500e+03 -1.334449340820312500e+03 -9.116949218750000000e+03 -1.155932226562500000e+04 -7.881595703125000000e+03 3.160439147949218750e+02 6.942016113281250000e+03 2.813382324218750000e+03
1.257754364013671875e+02 -1.929202880859375000e+03 2.746140136718750000e+03 -9.001087890625000000e+03 -5.656732421875000000e+03 6.933822265625000000e+03 5.411421386718750000e+03 9.582137451171875000e+02
1.532296875000000000e+03 -2.046117919921875000e+03 1.523410253906250000e+04 -5.181958007812500000e+03 -2.639739501953125000e+03 1.347718750000000000e+04 3.312884033203125000e+03 -7.019422607421875000e+02
2.962331054687500000e+03 -1.471433105468750000e+03 2.629961132812500000e+04 -1.067049316406250000e+03 3.888419494628906250e+02 1.853800390625000000e+04 3.318787536621093750e+02 -2.040469970703125000e+03
4.116645507812500000e+03 -8.015090332031250000e+02 3.370100781250000000e+04 2.856925292968750000e+03 3.349286132812500000e+03 2.117216992187500000e+04 -2.775790771484375000e+03 -3.328664794921875000e+03
5.000985839843750000e+03 -1.999985961914062500e+02 3.778761718750000000e+04 6.702998535156250000e+03 6.019232421875000000e+03 2.202726171875000000e+04 -5.292289550781250000e+03 -4.307186035156250000e+03
5.561783691406250000e+03 5.113265686035156250e+02 3.841157812500000000e+04 9.790939453125000000e+03 7.810391601562500000e+03 2.076622656250000000e+04 -7.364010253906250000e+03 -4.800034667968750000e+03
5.526904296875000000e+03 1.156381591796875000e+03 3.507721093750000000e+04 1.184743945312500000e+04 8.969223632812500000e+03 1.722796484375000000e+04 -8.725302734375000000e+03 -4.854486328125000000e+03
5.038338867187500000e+03 1.428131958007812500e+03 2.801002148437500000e+04 1.277204589843750000e+04 9.472090820312500000e+03 1.192776367187500000e+04 -8.879888671875000000e+03 -4.624396484375000000e+03
4.161643066406250000e+03 1.236649047851562500e+03 1.819446679687500000e+04 1.243469335937500000e+04 8.821370117187500000e+03 5.494012207031250000e+03 -7.800113769531250000e+03 -4.117991699218750000e+03
2.607491699218750000e+03 1.019665954589843750e+03 7.499295898437500000e+03 1.102449609375000000e+04 7.297833984375000000e+03 -9.979370117187500000e+02 -6.082791503906250000e+03 -2.996139648437500000e+03
5.011902770996093750e+02 9.276527709960937500e+02 -3.663505615234375000e+03 8.511907226562500000e+03 5.250697753906250000e+03 -7.243045898437500000e+03 -4.041251953125000000e+03 -1.558133544921875000e+03
-1.566061157226562500e+03 5.491192626953125000e+02 -1.518742773437500000e+04 5.048489257812500000e+03 2.514822753906250000e+03 -1.312788378906250000e+04 -1.551186523437500000e+03 -2.965786743164062500e+02
-3.212603271484375000e+03 -3.817428970336914062e+01 -2.504520507812500000e+04 1.024170288085937500e+03 -4.911315917968750000e+02 -1.760281054687500000e+04 1.139520507812500000e+03 9.465170288085937500e+02
-4.469930175781250000e+03 -2.607705383300781250e+02 -3.151542578125000000e+04 -2.910135009765625000e+03 -3.139654785156250000e+03 -1.983590234375000000e+04 3.392345458984375000e+03 2.391007080078125000e+03
-5.270103027343750000e+03 3.521429777145385742e+00 -3.494156250000000000e+04 -6.330168457031250000e+03 -5.662781250000000000e+03 -2.025617382812500000e+04 4.735836425781250000e+03 3.821383544921875000e+03
-5.486675781250000000e+03 3.855747375488281250e+02 -3.529492187500000000e+04 -9.284500976562500000e+03 -7.742427734375000000e+03 -1.913161328125000000e+04 5.482146484375000000e+03 4.816765625000000000e+03
-5.337055175781250000e+03 5.318119506835937500e+02 -3.249565234375000000e+04 -1.147718554687500000e+04 -8.682455078125000000e+03 -1.619663378906250000e+04 5.985573730468750000e+03 5.153677734375000000e+03
-4.849942382812500000e+03 3.021506042480468750e+02 -2.702115429687500000e+04 -1.249405468750000000e+04 -8.767291992187500000e+03 -1.175649804687500000e+04 6.405846191406250000e+03 4.837076171875000000e+03
-3.937585449218750000e+03 -2.955660705566406250e+02 -1.875556054687500000e+04 -1.221101562500000000e+04 -8.326688476562500000e+03 -6.089881835937500000e+03 6.781470214843750000e+03 3.907990722656250000e+03
-2.845134033203125000e+03 -1.041687011718750000e+03 -8.595136718750000000e+03 -1.073822070312500000e+04 -7.206857421875000000e+03 2.837103881835937500e+02 6.450092773437500000e+03 2.602418212890625000e+03
-1.656952270507812500e+03 -1.721957153320312500e+03 2.223115722656250000e+03 -8.210891601562500000e+03 -5.169274414062500000e+03 6.464886230468750000e+03 5.258708496093750000e+03 1.185209838867187500e+03
-3.510459899902343750e+02 -1.917400146484375000e+03 1.351757812500000000e+04 -4.707716308593750000e+03 -2.461637451171875000e+03 1.233558886718750000e+04 3.370154541015625000e+03 1.476166248321533203e+01
1.147792114257812500e+03 -1.360950317382812500e+03 2.369195507812500000e+04 -8.673907470703125000e+02 3.914124145507812500e+02 1.700091601562500000e+04 6.558477783203125000e+02 -8.832918090820312500e+02
2.750380371093750000e+03 -6.870642089843750000e+02 3.060270312500000000e+04 2.780827148437500000e+03 3.173312500000000000e+03 1.938493554687500000e+04 -2.174632812500000000e+03 -1.904257690429687500e+03
3.979599609375000000e+03 -1.043522739410400391e+01 3.461972656250000000e+04 6.298202636718750000e+03 5.516880859375000000e+03 2.010541406250000000e+04 -4.543619140625000000e+03 -2.685931884765625000e+03
4.611166503906250000e+03 7.934624023437500000e+02 3.553629687500000000e+04 9.177246093750000000e+03 7.198057617187500000e+03 1.910440234375000000e+04 -6.480191894531250000e+03 -3.062906005859375000e+03
4.701651855468750000e+03 1.229546508789062500e+03 3.254839843750000000e+04 1.105112597656250000e+04 8.246359375000000000e+03 1.607565136718750000e+04 -7.690287597656250000e+03 -3.274804199218750000e+03
4.550867187500000000e+03 1.233219482421875000e+03 2.615856250000000000e+04 1.192580273437500000e+04 8.432428710937500000e+03 1.129752441406250000e+04 -7.848791503906250000e+03 -3.197832763671875000e+03
4.348579589843750000e+03 9.916620483398437500e+02 1.724135351562500000e+04 1.144250390625000000e+04 7.819922851562500000e+03 5.344100097656250000e+03 -6.976197753906250000e+03 -2.839430664062500000e+03
3.822095458984375000e+03 7.475837402343750000e+02 7.441606445312500000e+03 9.830195312500000000e+03 6.418749511718750000e+03 -5.887443847656250000e+02 -5.537791992187500000e+03 -2.093878662109375000e+03
2.930888427734375000e+03 6.463753051757812500e+02 -2.771559082031250000e+03 7.436223144531250000e+03 4.189231933593750000e+03 -6.278338867187500000e+03 -3.872950439453125000e+03 -9.950507812500000000e+02
1.922263183593750000e+03 2.744140625000000000e+02 -1.371194042968750000e+04 4.154077636718750000e+03 1.831237548828125000e+03 -1.181311035156250000e+04 -1.710309814453125000e+03 -4.187278747558593750e+01
7.771951293945312500e+02 -2.678596191406250000e+02 -2.317255078125000000e+04 6.208423461914062500e+02 -4.484500122070312500e+02 -1.612701464843750000e+04 7.742091064453125000e+02 8.262924194335937500e+02
-5.077150878906250000e+02 -3.328066711425781250e+02 -2.906676367187500000e+04 -2.667793212890625000e+03 -2.846544921875000000e+03 -1.827981445312500000e+04 2.696364990234375000e+03 2.006055175781250000e+03
-1.647124633789062500e+03 4.294218063354492188e+01 -3.210133398437500000e+04 -5.878355957031250000e+03 -4.966666503906250000e+03 -1.859886523437500000e+04 3.800104003906250000e+03 3.208224853515625000e+03
-2.474624267578125000e+03 5.362524414062500000e+02 -3.261143359375000000e+04 -8.599721679687500000e+03 -6.602845214843750000e+03 -1.758463281250000000e+04 4.505360839843750000e+03 4.081206298828125000e+03
-2.963033203125000000e+03 7.425704956054687500e+02 -3.026149609375000000e+04 -1.048100781250000000e+04 -7.587112304687500000e+03 -1.512566601562500000e+04 5.104024902343750000e+03 4.327624511718750000e+03
-3.153831542968750000e+03 4.876605834960937500e+02 -2.503144531250000000e+04 -1.120640527343750000e+04 -7.814991210937500000e+03 -1.109037988281250000e+04 5.681240234375000000e+03 3.913659179687500000e+03
-2.965478271484375000e+03 2.853635978698730469e+01 -1.710939648437500000e+04 -1.061042285156250000e+04 -7.524542480468750000e+03 -5.883554687500000000e+03 6.037503417968750000e+03 3.220901855468750000e+03
-2.361552978515625000e+03 -7.495357666015625000e+02 -7.914475585937500000e+03 -9.207243164062500000e+03 -6.483049316406250000e+03 -1.093039474487304688e+02 5.936074218750000000e+03 2.084441162109375000e+03
-1.670342895507812500e+03 -1.716832031250000000e+03 1.638199584960937500e+03 -7.077760253906250000e+03 -4.310857910156250000e+03 5.663491210937500000e+03 5.320892089843750000e+03 5.847002563476562500e+02
-8.704965820312500000e+02 -2.008186523437500000e+03 1.210319238281250000e+04 -4.072588134765625000e+03 -1.621544921875000000e+03 1.114071679687500000e+04 3.808449951171875000e+03 -4.823236389160156250e+02
2.558249664306640625e+02 -1.456343261718750000e+03 2.180387304687500000e+04 -5.471751098632812500e+02 4.092053527832031250e+02 1.560724609375000000e+04 1.284928833007812500e+03 -1.200192138671875000e+03
1.536370483398437500e+03 -7.753032226562500000e+02 2.803369726562500000e+04 2.793826660156250000e+03 2.105596923828125000e+03 1.797341015625000000e+04 -1.387222656250000000e+03 -2.055697753906250000e+03
2.721938232421875000e+03 -4.854698944091796875e+01 3.145189843750000000e+04 5.626524902343750000e+03 4.352319824218750000e+03 1.865819921875000000e+04 -3.572645507812500000e+03 -2.782054931640625000e+03
3.562619140625000000e+03 7.829771118164062500e+02 3.238243164062500000e+04 8.092990722656250000e+03 6.351216308593750000e+03 1.771899218750000000e+04 -5.438101562500000000e+03 -3.243938720703125000e+03
3.861145507812500000e+03 1.344774536132812500e+03 2.975459375000000000e+04 9.823575195312500000e+03 7.448433593750000000e+03 1.466522460937500000e+04 -6.884754882812500000e+03 -3.438851806640625000e+03
3.798669921875000000e+03 1.327884155273437500e+03 2.368453125000000000e+04 1.049322656250000000e+04 7.856661621093750000e+03 1.011530761718750000e+04 -7.167460937500000000e+03 -3.491536376953125000e+03
3.471921875000000000e+03 8.262233886718750000e+02 1.551499121093750000e+04 1.039669921875000000e+04 7.423330078125000000e+03 4.809253906250000000e+03 -6.407933105468750000e+03 -3.358393798828125000e+03
2.644368896484375000e+03 4.756316833496093750e+02 6.718519042968750000e+03 9.351191406250000000e+03 6.341920410156250000e+03 -5.037337341308593750e+02 -5.384257324218750000e+03 -2.620072998046875000e+03
1.546735717773437500e+03 3.992523803710937500e+02 -2.721695800781250000e+03 7.166473632812500000e+03 4.887310058593750000e+03 -5.573311035156250000e+03 -3.907759033203125000e+03 -1.592910888671875000e+03
4.387692565917968750e+02 8.781707000732421875e+01 -1.250584765625000000e+04 4.263114746093750000e+03 2.578449707031250000e+03 -1.057752441406250000e+04 -1.881551757812500000e+03 -7.210643310546875000e+02
-8.311887817382812500e+02 -3.151152038574218750e+02 -2.082834960937500000e+04 8.883009643554687500e+02 -1.879588012695312500e+02 -1.463648535156250000e+04 3.289742126464843750e+02 2.166100616455078125e+02
-2.089401611328125000e+03 -1.517245788574218750e+02 -2.631241601562500000e+04 -2.468375488281250000e+03 -2.537194824218750000e+03 -1.678266210937500000e+04 2.222259765625000000e+03 1.380765991210937500e+03
-3.263786132812500000e+03 4.672096252441406250e+02 -2.921102539062500000e+04 -5.331777832031250000e+03 -4.582186035156250000e+03 -1.730310742187500000e+04 3.304136474609375000e+03 2.536769531250000000e+03
-4.302548339843750000e+03 1.013014038085937500e+03 -2.963230078125000000e+04 -7.776550781250000000e+03 -6.145000488281250000e+03 -1.628520312500000000e+04 3.930124023437500000e+03 3.410893066406250000e+03
-4.759478027343750000e+03 1.189555419921875000e+03 -2.749459570312500000e+04 -9.614376953125000000e+03 -7.106486816406250000e+03 -1.375534082031250000e+04 4.519265136718750000e+03 3.619604980468750000e+03
-4.858676757812500000e+03 7.911791381835937500e+02 -2.293064062500000000e+04 -1.031152148437500000e+04 -7.440439453125000000e+03 -9.994865234375000000e+03 5.268203125000000000e+03 3.166939697265625000e+03
-4.968828125000000000e+03 6.573050689697265625e+01 -1.577736523437500000e+04 -9.780375000000000000e+03 -6.908623535156250000e+03 -5.113352539062500000e+03 5.970132812500000000e+03 2.456274414062500000e+03
-4.611279296875000000e+03 -8.188737792968750000e+02 -7.085658203125000000e+03 -8.623375000000000000e+03 -5.986706054687500000e+03 9.559897613525390625e+01 5.904170410156250000e+03 1.384058349609375000e+03
-3.539399169921875000e+03 -1.932311523437500000e+03 1.983557617187500000e+03 -6.964335449218750000e+03 -4.655942871093750000e+03 5.207219726562500000e+03 5.152380859375000000e+03 2.056689262390136719e+01
-2.304294433593750000e+03 -2.396047119140625000e+03 1.166579101562500000e+04 -4.219440917968750000e+03 -2.461166015625000000e+03 1.036331054687500000e+04 3.587942871093750000e+03 -9.640843505859375000e+02
-1.304762695312500000e+03 -1.835246582031250000e+03 2.047926757812500000e+04 -7.668224487304687500e+02 9.119207763671875000e+01 1.442451757812500000e+04 9.079359130859375000e+02 -1.560826293945312500e+03
-2.501752929687500000e+02 -1.218655395507812500e+03 2.603265429687500000e+04 2.457260253906250000e+03 2.539523437500000000e+03 1.650736718750000000e+04 -1.821807373046875000e+03 -2.260087646484375000e+03
1.023884094238281250e+03 -6.330786132812500000e+02 2.912651367187500000e+04 5.264864257812500000e+03 4.703867675781250000e+03 1.708848632812500000e+04 -4.008390869140625000e+03 -2.871372558593750000e+03
1.971762817382812500e+03 1.191376342773437500e+02 2.980825585937500000e+04 7.663743164062500000e+03 6.276683105468750000e+03 1.601834277343750000e+04 -5.896687988281250000e+03 -3.135397460937500000e+03
2.322102783203125000e+03 7.249772338867187500e+02 2.696952148437500000e+04 9.286744140625000000e+03 7.338504394531250000e+03 1.317918750000000000e+04 -7.225812500000000000e+03 -3.082909423828125000e+03
2.469314208984375000e+03 9.207716674804687500e+02 2.127767187500000000e+04 9.734629882812500000e+03 7.608295898437500000e+03 8.846829101562500000e+03 -7.525403320312500000e+03 -2.863541015625000000e+03
2.372916259765625000e+03 6.228015136718750000e+02 1.349631835937500000e+04 9.384700195312500000e+03 6.908003417968750000e+03 3.781102294921875000e+03 -6.655573730468750000e+03 -2.483022705078125000e+03
1.915821533203125000e+03 4.200709228515625000e+02 5.035617675781250000e+03 8.393218750000000000e+03 5.665577636718750000e+03 -1.031172851562500000e+03 -5.171494140625000000e+03 -1.649308593750000000e+03
1.465307617187500000e+03 4.503780212402343750e+02 -3.353373291015625000e+03 6.369856933593750000e+03 3.952628173828125000e+03 -5.790985839843750000e+03 -3.399853759765625000e+03 -5.842617187500000000e+02
1.020151489257812500e+03 1.801336822509765625e+02 -1.215035546875000000e+04 3.650295410156250000e+03 1.751931152343750000e+03 -1.036598144531250000e+04 -1.139971679687500000e+03 2.596082153320312500e+02
3.176631774902343750e+02 -1.375077514648437500e+02 -1.979401953125000000e+04 5.592224731445312500e+02 -5.865446166992187500e+02 -1.377701953125000000e+04 1.233688476562500000e+03 1.143433227539062500e+03
-4.749683227539062500e+02 3.344143295288085938e+01 -2.452945898437500000e+04 -2.552302490234375000e+03 -2.787572021484375000e+03 -1.557706347656250000e+04 3.015947265625000000e+03 2.329164794921875000e+03
-1.043264404296875000e+03 5.478919067382812500e+02 -2.691157421875000000e+04 -5.132685546875000000e+03 -4.808464843750000000e+03 -1.591295117187500000e+04 4.067594970703125000e+03 3.371709472656250000e+03
-1.419308349609375000e+03 1.076882202148437500e+03 -2.696998632812500000e+04 -7.216845703125000000e+03 -6.183131347656250000e+03 -1.478385839843750000e+04 4.762485351562500000e+03 3.978024414062500000e+03
-1.601842285156250000e+03 1.311177246093750000e+03 -2.451079882812500000e+04 -8.786451171875000000e+03 -6.778443359375000000e+03 -1.240263574218750000e+04 5.278776855468750000e+03 4.102012207031250000e+03
-1.469020507812500000e+03 1.107672241210937500e+03 -1.995649218750000000e+04 -9.484733398437500000e+03 -6.916936035156250000e+03 -8.837426757812500000e+03 5.652722167968750000e+03 3.770672607421875000e+03
-9.799921875000000000e+02 5.770390014648437500e+02 -1.329262890625000000e+04 -9.231618164062500000e+03 -6.575772949218750000e+03 -4.045206787109375000e+03 5.893206054687500000e+03 3.028142333984375000e+03
-1.932289123535156250e+02 -2.564219970703125000e+02 -5.500659667968750000e+03 -8.144466308593750000e+03 -5.660645019531250000e+03 9.419869995117187500e+02 5.567112792968750000e+03 1.799157348632812500e+03
6.497263793945312500e+02 -1.112572998046875000e+03 2.500306884765625000e+03 -6.186589355468750000e+03 -3.953490234375000000e+03 5.541835937500000000e+03 4.539649902343750000e+03 4.355587158203125000e+02
1.506592773437500000e+03 -1.363907470703125000e+03 1.127980664062500000e+04 -3.476580810546875000e+03 -1.690008056640625000e+03 1.004816015625000000e+04 2.824607666015625000e+03 -5.501998901367187500e+02
2.419019287109375000e+03 -1.031095214843750000e+03 1.927041210937500000e+04 -4.431697692871093750e+02 6.504671630859375000e+02 1.363580957031250000e+04 3.052093811035156250e+02 -1.313309082031250000e+03
3.291152587890625000e+03 -7.233786010742187500e+02 2.406743554687500000e+04 2.497640869140625000e+03 2.762409912109375000e+03 1.540790625000000000e+04 -2.187374267578125000e+03 -2.183165771484375000e+03
3.959046142578125000e+03 -3.563810424804687500e+02 2.649030078125000000e+04 5.065938964843750000e+03 4.393154296875000000e+03 1.579014648437500000e+04 -4.159689453125000000e+03 -2.828833496093750000e+03
4.190111816406250000e+03 1.701719970703125000e+02 2.673595312500000000e+04 7.247999511718750000e+03 5.765736328125000000e+03 1.471172753906250000e+04 -5.953269531250000000e+03 -3.071035156250000000e+03
4.091191650390625000e+03 5.224780883789062500e+02 2.417221093750000000e+04 8.786697265625000000e+03 6.694541015625000000e+03 1.202637890625000000e+04 -7.124506835937500000e+03 -3.162324218750000000e+03
3.731146484375000000e+03 6.238021850585937500e+02 1.914706835937500000e+04 9.217433593750000000e+03 6.813108398437500000e+03 8.194210937500000000e+03 -7.120744140625000000e+03 -3.170272460937500000e+03
2.923933105468750000e+03 4.856426086425781250e+02 1.218380468750000000e+04 8.859842773437500000e+03 6.342362304687500000e+03 3.552269287109375000e+03 -6.217279785156250000e+03 -2.829571044921875000e+03
1.924898925781250000e+03 3.418731994628906250e+02 4.621418945312500000e+03 7.717691406250000000e+03 5.203851562500000000e+03 -1.001505554199218750e+03 -4.846966308593750000e+03 -1.950313232421875000e+03
8.355715942382812500e+02 3.565758972167968750e+02 -3.121329589843750000e+03 5.592050781250000000e+03 3.453967285156250000e+03 -5.269062988281250000e+03 -3.190486572265625000e+03 -8.168836669921875000e+02
-4.423101806640625000e+02 1.427961578369140625e+02 -1.129616699218750000e+04 3.044329345703125000e+03 1.379398315429687500e+03 -9.579267578125000000e+03 -1.210578002929687500e+03 1.966684417724609375e+02
-1.587855468750000000e+03 -3.016897888183593750e+02 -1.831713671875000000e+04 2.546810760498046875e+02 -7.298959350585937500e+02 -1.281427343750000000e+04 1.010859741210937500e+03 1.054372070312500000e+03
-2.551084960937500000e+03 -3.675587463378906250e+02 -2.260013476562500000e+04 -2.565723388671875000e+03 -2.546823242187500000e+03 -1.436447656250000000e+04 2.810075927734375000e+03 1.997353271484375000e+03
-3.447167480468750000e+03 -7.676557159423828125e+01 -2.460986914062500000e+04 -5.022192382812500000e+03 -4.201192382812500000e+03 -1.463373632812500000e+04 3.832081298828125000e+03 2.878354980468750000e+03
-4.119333007812500000e+03 2.537127075195312500e+02 -2.447599218750000000e+04 -6.972654785156250000e+03 -5.377725585937500000e+03 -1.357956542968750000e+04 4.405496093750000000e+03 3.399019287109375000e+03
-4.489034667968750000e+03 5.034601745605468750e+02 -2.223268750000000000e+04 -8.277032226562500000e+03 -5.992340332031250000e+03 -1.132665039062500000e+04 4.745733886718750000e+03 3.498248291015625000e+03
-4.579056640625000000e+03 3.576987609863281250e+02 -1.838928906250000000e+04 -8.860000976562500000e+03 -6.326897460937500000e+03 -7.996069824218750000e+03 5.092635253906250000e+03 3.152345214843750000e+03
-4.242229492187500000e+03 -1.994566040039062500e+02 -1.277538085937500000e+04 -8.512803710937500000e+03 -5.985289062500000000e+03 -3.985291992187500000e+03 5.446163574218750000e+03 2.393118896484375000e+03
-3.504858886718750000e+03 -8.597258300781250000e+02 -5.877150390625000000e+03 -7.365618652343750000e+03 -5.015677246093750000e+03 2.924963684082031250e+02 5.307275390625000000e+03 1.263171386718750000e+03
-2.673882324218750000e+03 -1.470189819335937500e+03 1.646088745117187500e+03 -5.544351074218750000e+03 -3.608533691406250000e+03 4.607790039062500000e+03 4.498764160156250000e+03 1.211400794982910156e+01
-1.769357788085937500e+03 -1.573254394531250000e+03 9.876366210937500000e+03 -2.944452636718750000e+03 -1.804161865234375000e+03 8.679616210937500000e+03 2.975028808593750000e+03 -9.020250244140625000e+02
-7.766455688476562500e+02 -8.977230224609375000e+02 1.719815625000000000e+04 -2.320886230468750000e+02 1.753116607666015625e+02 1.197903027343750000e+04 5.919423828125000000e+02 -1.484609375000000000e+03
2.138008117675781250e+02 -1.555478057861328125e+02 2.164829296875000000e+04 2.291595458984375000e+03 2.329772216796875000e+03 1.358463281250000000e+04 -1.946694213867187500e+03 -2.112472412109375000e+03
1.135122314453125000e+03 4.351199645996093750e+02 2.398144531250000000e+04 4.878947265625000000e+03 4.202675292968750000e+03 1.390695703125000000e+04 -3.938344970703125000e+03 -2.585397705078125000e+03
1.844527709960937500e+03 1.084756713867187500e+03 2.440808984375000000e+04 6.931833007812500000e+03 5.442115234375000000e+03 1.311368945312500000e+04 -5.622205566406250000e+03 -2.689090820312500000e+03
2.375811035156250000e+03 1.468452758789062500e+03 2.227838671875000000e+04 8.019083496093750000e+03 6.137094726562500000e+03 1.084078222656250000e+04 -6.804417968750000000e+03 -2.648410888671875000e+03
2.676308349609375000e+03 1.396933471679687500e+03 1.764367382812500000e+04 8.408339843750000000e+03 6.088295410156250000e+03 7.475728027343750000e+03 -6.762958984375000000e+03 -2.604689697265625000e+03
2.510217529296875000e+03 9.796425170898437500e+02 1.136760449218750000e+04 8.157049804687500000e+03 5.531241699218750000e+03 3.300602539062500000e+03 -5.647130859375000000e+03 -2.378602050781250000e+03
1.999771728515625000e+03 5.928242187500000000e+02 4.816361816406250000e+03 7.056252441406250000e+03 4.623420898437500000e+03 -8.062692871093750000e+02 -4.243529296875000000e+03 -1.707651000976562500e+03
1.224805297851562500e+03 4.249409179687500000e+02 -2.201113037109375000e+03 5.177566406250000000e+03 3.265255371093750000e+03 -4.652150390625000000e+03 -2.851422363281250000e+03 -7.876876831054687500e+02
2.299341125488281250e+02 2.158678293228149414e+00 -9.775958984375000000e+03 2.777355712890625000e+03 1.561207885742187500e+03 -8.628569335937500000e+03 -1.216134033203125000e+03 -7.899565696716308594e+00
-6.186965942382812500e+02 -6.464646606445312500e+02 -1.631226171875000000e+04 1.631598815917968750e+02 -4.712049255371093750e+02 -1.160521972656250000e+04 6.892022094726562500e+02 6.916178588867187500e+02
-1.255084106445312500e+03 -7.887978515625000000e+02 -2.032480468750000000e+04 -2.325261474609375000e+03 -2.345110351562500000e+03 -1.292348925781250000e+04 2.179324951171875000e+03 1.592290527343750000e+03
-1.652451293945312500e+03 -4.609344787597656250e+02 -2.217322656250000000e+04 -4.605721679687500000e+03 -3.808480712890625000e+03 -1.302982324218750000e+04 2.923202636718750000e+03 2.515519042968750000e+03
-1.836678588867187500e+03 -5.014625930786132812e+01 -2.240479882812500000e+04 -6.511978027343750000e+03 -5.079466796875000000e+03 -1.204903906250000000e+04 3.331380859375000000e+03 3.200145996093750000e+03
-1.865981567382812500e+03 1.683737335205078125e+02 -2.083758984375000000e+04 -7.932405761718750000e+03 -6.021850097656250000e+03 -1.026344433593750000e+04 3.652817871093750000e+03 3.399141113281250000e+03
-1.495093627929687500e+03 -1.171659698486328125e+02 -1.737975000000000000e+04 -8.642958007812500000e+03 -6.220510253906250000e+03 -7.482220703125000000e+03 4.164082519531250000e+03 2.996976318359375000e+03
-9.187866210937500000e+02 -6.272520751953125000e+02 -1.186760351562500000e+04 -8.165424804687500000e+03 -5.509868164062500000e+03 -3.657274902343750000e+03 4.783639648437500000e+03 2.352463867187500000e+03
-3.258048095703125000e+02 -1.056510986328125000e+03 -5.342290039062500000e+03 -6.791882812500000000e+03 -4.438010253906250000e+03 4.258670349121093750e+02 4.842790527343750000e+03 1.551666625976562500e+03
4.412541198730468750e+02 -1.562638793945312500e+03 1.243171630859375000e+03 -4.975766601562500000e+03 -3.115575683593750000e+03 4.318341308593750000e+03 4.316954589843750000e+03 5.067165222167968750e+02
1.234828369140625000e+03 -1.683795288085937500e+03 8.776313476562500000e+03 -2.532854736328125000e+03 -1.291635009765625000e+03 8.104313964843750000e+03 3.226733398437500000e+03 -3.295123291015625000e+02
1.930116210937500000e+03 -9.681685180664062500e+02 1.588965136718750000e+04 6.673378753662109375e+01 5.674613037109375000e+02 1.133478613281250000e+04 1.182833496093750000e+03 -7.507802124023437500e+02
2.487602539062500000e+03 -1.036659774780273438e+02 1.999312890625000000e+04 2.336326660156250000e+03 2.349725585937500000e+03 1.286769335937500000e+04 -1.080385498046875000e+03 -1.145710693359375000e+03
2.767103271484375000e+03 6.684524536132812500e+02 2.213667773437500000e+04 4.570916992187500000e+03 3.973911376953125000e+03 1.305761621093750000e+04 -2.824592529296875000e+03 -1.465849731445312500e+03
2.937609619140625000e+03 1.346278930664062500e+03 2.271978906250000000e+04 6.490849609375000000e+03 4.962625976562500000e+03 1.231157812500000000e+04 -4.282191406250000000e+03 -1.661619628906250000e+03
2.921306884765625000e+03 1.667995483398437500e+03 2.069884179687500000e+04 7.643576660156250000e+03 5.470015625000000000e+03 1.009581152343750000e+04 -5.361388183593750000e+03 -1.817750488281250000e+03
2.488842773437500000e+03 1.697473144531250000e+03 1.631512890625000000e+04 7.896917480468750000e+03 5.592931152343750000e+03 6.758465332031250000e+03 -5.618719238281250000e+03 -1.897829711914062500e+03
1.952594726562500000e+03 1.259664062500000000e+03 1.041638574218750000e+04 7.436236816406250000e+03 5.218375000000000000e+03 3.062923095703125000e+03 -4.812460937500000000e+03 -1.900443115234375000e+03
1.304697875976562500e+03 7.320460205078125000e+02 4.524220214843750000e+03 6.492466796875000000e+03 4.461685058593750000e+03 -4.730750122070312500e+02 -3.599101806640625000e+03 -1.460226562500000000e+03
4.465391540527343750e+02 4.675970764160156250e+02 -1.395254638671875000e+03 4.950252929687500000e+03 3.115355712890625000e+03 -3.975799072265625000e+03 -2.511197509765625000e+03 -7.290429687500000000e+02
-4.020667724609375000e+02 -5.129966354370117188e+01 -8.207388671875000000e+03 2.772533935546875000e+03 1.195637939453125000e+03 -7.525775390625000000e+03 -1.195845825195312500e+03 -2.208922576904296875e+02
-1.224256713867187500e+03 -6.741887817382812500e+02 -1.425736914062500000e+04 2.646726379394531250e+02 -5.297966918945312500e+02 -1.007392773437500000e+04 2.594402770996093750e+02 3.206723022460937500e+02
-1.887827392578125000e+03 -8.945601196289062500e+02 -1.767210546875000000e+04 -1.826989501953125000e+03 -1.826701660156250000e+03 -1.059400585937500000e+04 1.506611328125000000e+03 1.073362426757812500e+03
-2.377783691406250000e+03 -7.207317504882812500e+02 -1.920802148437500000e+04 -3.419333496093750000e+03 -3.071512695312500000e+03 -1.001934375000000000e+04 2.182371826171875000e+03 1.853273437500000000e+03
-2.773197753906250000e+03 -3.411623535156250000e+02 -1.966280273437500000e+04 -5.093293945312500000e+03 -4.259748535156250000e+03 -9.544794921875000000e+03 2.364678466796875000e+03 2.470255859375000000e+03
-2.876626708984375000e+03 -1.172192764282226562e+02 -1.874825976562500000e+04 -6.700935546875000000e+03 -5.206031738281250000e+03 -8.669335937500000000e+03 2.700450683593750000e+03 2.580552001953125000e+03
-2.709991943359375000e+03 -1.578007659912109375e+02 -1.615989746093750000e+04 -7.533733398437500000e+03 -5.426448730468750000e+03 -6.831048828125000000e+03 3.291835449218750000e+03 2.279144775390625000e+03
-2.344563720703125000e+03 -4.517087402343750000e+02 -1.178720800781250000e+04 -7.430879394531250000e+03 -4.868275390625000000e+03 -4.085323242187500000e+03 4.000252685546875000e+03 1.685990844726562500e+03
-1.841449829101562500e+03 -9.661002197265625000e+02 -6.520662109375000000e+03 -6.527354980468750000e+03 -3.894838134765625000e+03 -9.447970581054687500e+02 4.433087890625000000e+03 7.917516479492187500e+02
-1.295002807617187500e+03 -1.422625732421875000e+03 -1.086614501953125000e+03 -4.900093750000000000e+03 -2.574791748046875000e+03 2.086257080078125000e+03 4.297329589843750000e+03 -7.672153472900390625e+01
-6.033676147460937500e+02 -1.335262084960937500e+03 5.522400878906250000e+03 -2.901647949218750000e+03 -1.281277221679687500e+03 5.521536621093750000e+03 3.563912597656250000e+03 -6.292127685546875000e+02
1.942753906250000000e+02 -5.056703491210937500e+02 1.222123730468750000e+04 -6.477584838867187500e+02 9.273184967041015625e+01 8.651789062500000000e+03 2.022502441406250000e+03 -9.372611694335937500e+02
9.275040893554687500e+02 3.714246520996093750e+02 1.639849609375000000e+04 1.662189453125000000e+03 1.718107910156250000e+03 1.012802539062500000e+04 2.968567504882812500e+02 -1.326046752929687500e+03
1.466934936523437500e+03 1.064924804687500000e+03 1.902515820312500000e+04 3.633268310546875000e+03 3.146497070312500000e+03 1.070635839843750000e+04 -1.230991577148437500e+03 -1.620859497070312500e+03
1.836730468750000000e+03 1.699175659179687500e+03 2.037621484375000000e+04 5.147504882812500000e+03 4.217971679687500000e+03 1.045770800781250000e+04 -2.805932617187500000e+03 -1.762222900390625000e+03
2.053277099609375000e+03 2.018892456054687500e+03 1.940108398437500000e+04 6.256111328125000000e+03 4.812153808593750000e+03 8.857556640625000000e+03 -3.985344238281250000e+03 -1.924765136718750000e+03
2.058649658203125000e+03 1.949633544921875000e+03 1.633775878906250000e+04 6.856799804687500000e+03 4.906833007812500000e+03 6.274484863281250000e+03 -4.473151367187500000e+03 -1.997351318359375000e+03
1.897935424804687500e+03 1.480528198242187500e+03 1.165728906250000000e+04 6.628939941406250000e+03 4.618975585937500000e+03 3.214858398437500000e+03 -4.468403808593750000e+03 -1.875798950195312500e+03
1.459012817382812500e+03 9.462156982421875000e+02 6.675635742187500000e+03 5.742960937500000000e+03 4.002100341796875000e+03 3.309707641601562500e+02 -4.150098144531250000e+03 -1.370512817382812500e+03
7.260667724609375000e+02 5.241203613281250000e+02 1.464905883789062500e+03 4.452671875000000000e+03 2.973987792968750000e+03 -2.570083984375000000e+03 -3.445393310546875000e+03 -6.816324462890625000e+02
-1.873616790771484375e+02 -1.742787322998046875e+02 -4.983498046875000000e+03 2.538959228515625000e+03 1.345090698242187500e+03 -5.770057617187500000e+03 -2.406107421875000000e+03 -9.550004577636718750e+01
-1.187878173828125000e+03 -1.019937316894531250e+03 -1.121093457031250000e+04 3.283088989257812500e+02 -3.791261901855468750e+02 -8.468455078125000000e+03 -1.261678588867187500e+03 5.733616943359375000e+02
-1.936413208007812500e+03 -1.451227294921875000e+03 -1.493467871093750000e+04 -1.744720214843750000e+03 -1.854637207031250000e+03 -9.946379882812500000e+03 -1.106208877563476562e+02 1.337260986328125000e+03
-2.328443847656250000e+03 -1.409941406250000000e+03 -1.698033007812500000e+04 -3.848141113281250000e+03 -3.162342041015625000e+03 -1.042316894531250000e+04 6.215145263671875000e+02 2.015994628906250000e+03
-2.455534667968750000e+03 -9.935044555664062500e+02 -1.809835156250000000e+04 -5.526010253906250000e+03 -3.964114990234375000e+03 -1.008880566406250000e+04 8.551306152343750000e+02 2.586759521484375000e+03
-2.234071044921875000e+03 -5.028692932128906250e+02 -1.771057421875000000e+04 -6.357926757812500000e+03 -4.279055175781250000e+03 -8.982888671875000000e+03 1.025224243164062500e+03 2.790324707031250000e+03
-1.791242065429687500e+03 -4.899774780273437500e+02 -1.608807226562500000e+04 -6.667277832031250000e+03 -4.366128417968750000e+03 -7.066539062500000000e+03 1.427453613281250000e+03 2.483477294921875000e+03
-1.215084228515625000e+03 -8.136630859375000000e+02 -1.289087695312500000e+04 -6.437766601562500000e+03 -4.329774414062500000e+03 -4.376117187500000000e+03 2.447981689453125000e+03 1.885984252929687500e+03
-2.536937408447265625e+02 -1.110338378906250000e+03 -7.950244140625000000e+03 -5.619634277343750000e+03 -3.948288818359375000e+03 -1.123126098632812500e+03 3.879638427734375000e+03 9.002937622070312500e+02
1.025863891601562500e+03 -1.518140136718750000e+03 6.060141113281250000e+03 -3.840981445312500000e+03 -2.854464355468750000e+03 7.486233398437500000e+03 5.625005371093750000e+03 -4.800687866210937500e+02
1.756218627929687500e+03 -1.992005493164062500e+03 2.769081640625000000e+04 -4.407972412109375000e+02 -1.189439697265625000e+03 1.906291015625000000e+04 7.078591308593750000e+03 -1.432235473632812500e+03
1.672242919921875000e+03 -1.761327636718750000e+03 2.408431250000000000e+04 2.257991455078125000e+03 2.996234130859375000e+02 1.411894726562500000e+04 5.397487792968750000e+03 -1.585141479492187500e+03
1.701427612304687500e+03 -1.647708740234375000e+02 -4.084112304687500000e+03 1.823288940429687500e+03 1.258988525390625000e+03 -2.856674560546875000e+03 9.962219848632812500e+02 -1.632903686523437500e+03
1.960361328125000000e+03 1.965588378906250000e+03 -1.829360351562500000e+04 8.933366699218750000e+02 2.092078369140625000e+03 -1.000548828125000000e+04 -2.818320312500000000e+03 -1.597416015625000000e+03
2.192967529296875000e+03 3.683008789062500000e+03 -2.277942187500000000e+04 1.033854980468750000e+03 2.655151367187500000e+03 -1.264475976562500000e+04 -5.993802734375000000e+03 -1.306681396484375000e+03
2.546790527343750000e+03 5.016151367187500000e+03 -2.444935156250000000e+04 1.107525634765625000e+03 3.058635009765625000e+03 -1.368829199218750000e+04 -8.232795898437500000e+03 -1.103996826171875000e+03
2.690551513671875000e+03 5.465920410156250000e+03 -1.600710058593750000e+04 1.668369628906250000e+03 3.294333251953125000e+03 -9.556013671875000000e+03 -8.449468750000000000e+03 -1.021455871582031250e+03
2.587947509765625000e+03 4.977246582031250000e+03 -6.806440917968750000e+03 2.742965087890625000e+03 3.020605712890625000e+03 -4.787138183593750000e+03 -7.307145019531250000e+03 -9.747907714843750000e+02
2.299081542968750000e+03 4.197112792968750000e+03 4.807033691406250000e+03 3.977984130859375000e+03 2.649588378906250000e+03 3.014915527343750000e+03 -5.348054199218750000e+03 -6.880019531250000000e+02
1.736934692382812500e+03 3.011417968750000000e+03 1.969360546875000000e+04 5.197296386718750000e+03 2.129447265625000000e+03 1.236018847656250000e+04 -2.983086669921875000e+03 -1.759924163818359375e+02
1.188096801757812500e+03 8.674693603515625000e+02 3.178351757812500000e+04 5.913263183593750000e+03 1.453680297851562500e+03 1.929150390625000000e+04 -4.129099426269531250e+02 -4.395494461059570312e+00
5.138784790039062500e+02 -1.880454711914062500e+03 3.936728125000000000e+04 6.078916503906250000e+03 8.618709716796875000e+02 2.290931250000000000e+04 2.450865966796875000e+03 6.742209625244140625e+01
-4.930740966796875000e+02 -4.060632324218750000e+03 3.849230468750000000e+04 5.208906738281250000e+03 1.471946105957031250e+02 2.082476953125000000e+04 4.842895996093750000e+03 5.472700195312500000e+02
-1.460465576171875000e+03 -5.113812500000000000e+03 2.589960937500000000e+04 3.033399169921875000e+03 -7.578120117187500000e+02 1.219841601562500000e+04 5.561303222656250000e+03 1.249510986328125000e+03
-2.094028076171875000e+03 -5.054918457031250000e+03 8.899341796875000000e+03 -7.878779602050781250e+01 -1.857443237304687500e+03 2.317975097656250000e+03 5.264524414062500000e+03 1.838359741210937500e+03
-2.393727050781250000e+03 -4.651237792968750000e+03 -4.658731079101562500e+02 -2.979359375000000000e+03 -2.817402587890625000e+03 -2.226753662109375000e+03 5.628416992187500000e+03 1.891776367187500000e+03
-2.456335449218750000e+03 -4.269097656250000000e+03 -5.088506835937500000e+03 -4.576257812500000000e+03 -3.151475097656250000e+03 -4.077745849609375000e+03 6.213216796875000000e+03 1.584982543945312500e+03
-2.248143798828125000e+03 -3.713332519531250000e+03 -8.029414062500000000e+03 -5.268459960937500000e+03 -3.069156738281250000e+03 -4.767847167968750000e+03 6.133470703125000000e+03 1.125919677734375000e+03
-1.652779541015625000e+03 -3.492447021484375000e+03 -7.402980468750000000e+03 -5.253352050781250000e+03 -2.667469970703125000e+03 -3.613763183593750000e+03 5.821141113281250000e+03 1.801455383300781250e+02
-9.081543579101562500e+02 -3.298296386718750000e+03 -6.007389648437500000e+03 -4.499198730468750000e+03 -1.759934204101562500e+03 -2.541388671875000000e+03 5.308321777343750000e+03 -8.882348022460937500e+02
-4.926365661621093750e+02 -2.361314697265625000e+03 -2.076322509765625000e+03 -3.271972900390625000e+03 -7.743104248046875000e+02 -1.153650894165039062e+02 3.887551269531250000e+03 -1.435850952148437500e+03
-2.303813934326171875e+02 -9.815305786132812500e+02 2.896428222656250000e+03 -1.578475585937500000e+03 -2.651112937927246094e+01 2.465423095703125000e+03 1.600616699218750000e+03 -1.678040527343750000e+03
2.976721191406250000e+02 1.865157012939453125e+02 5.451564941406250000e+03 2.375149230957031250e+02 1.015023132324218750e+03 3.370957763671875000e+03 -5.616101684570312500e+02 -2.053229492187500000e+03
7.674827270507812500e+02 1.125302978515625000e+03 7.310432617187500000e+03 1.922115234375000000e+03 2.261912109375000000e+03 3.995993652343750000e+03 -2.174127685546875000e+03 -2.267657226562500000e+03
1.001615478515625000e+03 1.982931274414062500e+03 7.928486328125000000e+03 3.439465820312500000e+03 3.149298828125000000e+03 3.877531250000000000e+03 -3.575564453125000000e+03 -2.213661621093750000e+03
1.159760986328125000e+03 2.562490234375000000e+03 6.830509277343750000e+03 4.443266601562500000e+03 3.852465332031250000e+03 2.634310791015625000e+03 -4.725458007812500000e+03 -2.105638427734375000e+03
1.152803222656250000e+03 2.656295654296875000e+03 3.913577148437500000e+03 4.681803222656250000e+03 4.062396240234375000e+03 5.287156372070312500e+02 -5.183156738281250000e+03 -1.922332885742187500e+03
8.301603393554687500e+02 2.327341308593750000e+03 -8.336696777343750000e+02 4.431987304687500000e+03 3.704570556640625000e+03 -2.269499023437500000e+03 -4.886431640625000000e+03 -1.591734375000000000e+03
3.099791870117187500e+02 1.930265258789062500e+03 -5.503361328125000000e+03 3.831501220703125000e+03 2.920493652343750000e+03 -5.029201171875000000e+03 -4.289158203125000000e+03 -9.778231201171875000e+02
-2.094703216552734375e+02 1.626848876953125000e+03 -1.006792578125000000e+04 2.651783203125000000e+03 1.624461791992187500e+03 -7.635322265625000000e+03 -3.761521240234375000e+03 -1.328953094482421875e+02
-8.197003173828125000e+02 1.052906250000000000e+03 -1.568658203125000000e+04 7.577420043945312500e+02 4.097217102050781250e+02 -1.061401171875000000e+04 -3.089109375000000000e+03 5.869750366210937500e+02
-1.475720581054687500e+03 2.207763671875000000e+02 -2.098697265625000000e+04 -1.429663574218750000e+03 -9.214948120117187500e+02 -1.315793164062500000e+04 -2.053045166015625000e+03 1.121941650390625000e+03
-2.133980468750000000e+03 -8.450620269775390625e+01 -2.379954882812500000e+04 -3.202693603515625000e+03 -2.324513916015625000e+03 -1.386359863281250000e+04 -1.302656860351562500e+03 1.914768432617187500e+03
-2.681223876953125000e+03 1.760991821289062500e+02 -2.486315820312500000e+04 -4.658798339843750000e+03 -3.166682861328125000e+03 -1.370658203125000000e+04 -1.233705200195312500e+03 2.800736816406250000e+03
-2.901376464843750000e+03 5.351781005859375000e+02 -2.481467382812500000e+04 -5.914879882812500000e+03 -3.867445068359375000e+03 -1.307766308593750000e+04 -1.259842529296875000e+03 3.326914306640625000e+03
-2.913020996093750000e+03 8.376208496093750000e+02 -2.345589062500000000e+04 -6.798112304687500000e+03 -4.500155761718750000e+03 -1.136203125000000000e+04 -9.676519165039062500e+02 3.448423828125000000e+03
-2.598098876953125000e+03 8.544276733398437500e+02 -2.076993554687500000e+04 -7.112028808593750000e+03 -4.604973632812500000e+03 -9.035437500000000000e+03 -1.896330413818359375e+02 3.151486816406250000e+03
-1.918609008789062500e+03 5.883204345703125000e+02 -1.603259375000000000e+04 -6.705233398437500000e+03 -4.389384277343750000e+03 -5.833577636718750000e+03 1.019212646484375000e+03 2.522825927734375000e+03
-1.077207885742187500e+03 1.354244995117187500e+02 -9.974697265625000000e+03 -5.879678710937500000e+03 -4.017516357421875000e+03 -2.064267089843750000e+03 2.108880126953125000e+03 1.572376831054687500e+03
-4.128306579589843750e+01 -3.779829711914062500e+02 -3.482335937500000000e+03 -4.434924316406250000e+03 -3.017486083984375000e+03 1.495751342773437500e+03 2.813086914062500000e+03 4.517175903320312500e+02
9.224814453125000000e+02 -3.849521179199218750e+02 4.236575195312500000e+03 -2.248406738281250000e+03 -1.430162475585937500e+03 5.513481445312500000e+03 2.875308593750000000e+03 -2.705523071289062500e+02
1.696576049804687500e+03 2.509803009033203125e+02 1.200373144531250000e+04 -9.798389434814453125e+00 1.869687194824218750e+02 9.329761718750000000e+03 1.929357666015625000e+03 -6.273737182617187500e+02
2.426773193359375000e+03 8.742648315429687500e+02 1.719936328125000000e+04 1.951918579101562500e+03 1.610636230468750000e+03 1.137688867187500000e+04 6.041187744140625000e+02 -1.069387817382812500e+03
2.964385253906250000e+03 1.356694091796875000e+03 2.056989648437500000e+04 3.761443115234375000e+03 2.720671630859375000e+03 1.233447753906250000e+04 -5.117380981445312500e+02 -1.357365234375000000e+03
3.414658691406250000e+03 1.778953735351562500e+03 2.243725781250000000e+04 5.376297363281250000e+03 3.624942382812500000e+03 1.250863085937500000e+04 -1.517760864257812500e+03 -1.516856933593750000e+03
3.746204589843750000e+03 1.962766113281250000e+03 2.192188671875000000e+04 6.464271972656250000e+03 4.328099121093750000e+03 1.141210156250000000e+04 -2.288279052734375000e+03 -1.686193237304687500e+03
3.628372802734375000e+03 1.828926635742187500e+03 1.961488867187500000e+04 6.743308593750000000e+03 4.527083007812500000e+03 9.288996093750000000e+03 -2.593572753906250000e+03 -1.623888793945312500e+03
3.179181640625000000e+03 1.269671997070312500e+03 1.548626953125000000e+04 6.447946777343750000e+03 4.222365722656250000e+03 6.338462890625000000e+03 -2.314811767578125000e+03 -1.415513427734375000e+03
2.596537841796875000e+03 6.538892822265625000e+02 1.063932421875000000e+04 5.733319824218750000e+03 3.461917480468750000e+03 3.349965332031250000e+03 -1.815507812500000000e+03 -9.905907592773437500e+02
1.802132812500000000e+03 2.821435546875000000e+02 5.797240234375000000e+03 4.396779296875000000e+03 2.418531494140625000e+03 6.277661743164062500e+02 -1.485700439453125000e+03 -3.074394226074218750e+02
8.245005493164062500e+02 -2.867648315429687500e+02 -3.078175048828125000e+02 2.684533935546875000e+03 1.310939697265625000e+03 -2.462547851562500000e+03 -9.555950317382812500e+02 2.289596710205078125e+02
-1.636274261474609375e+02 -1.053719848632812500e+03 -6.083198730468750000e+03 8.852598266601562500e+02 3.085186767578125000e+01 -5.248166015625000000e+03 -5.276213836669921875e+01 6.131353149414062500e+02
-1.065390625000000000e+03 -1.422271728515625000e+03 -9.317376953125000000e+03 -9.697838134765625000e+02 -1.261989379882812500e+03 -6.656633789062500000e+03 6.133618774414062500e+02 1.159523193359375000e+03
-1.775606933593750000e+03 -1.334154418945312500e+03 -1.105720703125000000e+04 -2.521070312500000000e+03 -2.241107910156250000e+03 -7.184443847656250000e+03 7.435116577148437500e+02 1.728770996093750000e+03
-2.284460449218750000e+03 -1.006533630371093750e+03 -1.186307128906250000e+04 -3.745652343750000000e+03 -2.953607177734375000e+03 -7.115594238281250000e+03 6.956657104492187500e+02 2.166299560546875000e+03
-2.645861816406250000e+03 -7.107227783203125000e+02 -1.177219433593750000e+04 -4.889193847656250000e+03 -3.529560302734375000e+03 -6.181733398437500000e+03 8.855070190429687500e+02 2.287788818359375000e+03
-2.754025390625000000e+03 -7.397108764648437500e+02 -1.062424902343750000e+04 -5.449763671875000000e+03 -3.615882080078125000e+03 -4.616343750000000000e+03 1.626016845703125000e+03 1.965296997070312500e+03
-2.510536132812500000e+03 -1.028724609375000000e+03 -7.779623535156250000e+03 -5.071809570312500000e+03 -3.078330078125000000e+03 -2.558448730468750000e+03 2.627072753906250000e+03 1.399920654296875000e+03
-1.953637329101562500e+03 -1.556861083984375000e+03 -4.099575195312500000e+03 -4.174012695312500000e+03 -2.523540283203125000e+03 -1.056702346801757812e+02 3.438921386718750000e+03 5.051622314453125000e+02
-1.345064819335937500e+03 -2.113061523437500000e+03 1.083192672729492188e+02 -3.127885986328125000e+03 -1.890580322265625000e+03 2.461818603515625000e+03 4.123067871093750000e+03 -5.401534423828125000e+02
-9.381777343750000000e+02 -1.958288696289062500e+03 5.713748046875000000e+03 -1.668860229492187500e+03 -7.476436767578125000e+02 5.327926757812500000e+03 4.060996093750000000e+03 -1.066202758789062500e+03
-5.264605712890625000e+02 -1.138065185546875000e+03 1.135330761718750000e+04 2.453551940917968750e+02 3.369492187500000000e+02 7.953068847656250000e+03 2.842743652343750000e+03 -1.222976928710937500e+03
3.417564010620117188e+01 -4.707626953125000000e+02 1.467427832031250000e+04 1.896794799804687500e+03 1.095524291992187500e+03 9.065107421875000000e+03 1.477739135742187500e+03 -1.561973632812500000e+03
4.407525329589843750e+02 1.647633666992187500e+02 1.664100585937500000e+04 3.234575927734375000e+03 2.048711914062500000e+03 9.309394531250000000e+03 2.728851318359375000e+02 -1.800667968750000000e+03
5.867225341796875000e+02 9.382234497070312500e+02 1.766949414062500000e+04 4.456127441406250000e+03 3.179661376953125000e+03 9.168470703125000000e+03 -1.012968627929687500e+03 -1.804032226562500000e+03
6.301003417968750000e+02 1.397160278320312500e+03 1.655893554687500000e+04 5.227016113281250000e+03 3.906394531250000000e+03 8.039726074218750000e+03 -1.959795043945312500e+03 -1.810102172851562500e+03
5.739912109375000000e+02 1.323666992187500000e+03 1.351662304687500000e+04 5.453229980468750000e+03 3.877276367187500000e+03 5.771687011718750000e+03 -2.311317626953125000e+03 -1.819085205078125000e+03
4.303866882324218750e+02 8.706074829101562500e+02 9.112483398437500000e+03 5.244523925781250000e+03 3.391356445312500000e+03 2.884442871093750000e+03 -2.084129638671875000e+03 -1.722210693359375000e+03
2.854426269531250000e+02 6.238193359375000000e+02 4.779850585937500000e+03 4.618766113281250000e+03 2.569048095703125000e+03 4.741409912109375000e+02 -1.727698364257812500e+03 -1.239552001953125000e+03
5.824726867675781250e+01 6.205862426757812500e+02 5.768038330078125000e+02 3.402176513671875000e+03 1.539239868164062500e+03 -1.951548706054687500e+03 -1.574429687500000000e+03 -5.259383544921875000e+02
-2.005026397705078125e+02 1.778557891845703125e+02 -4.923705566406250000e+03 1.676652343750000000e+03 5.814779052734375000e+02 -4.998542968750000000e+03 -1.176855102539062500e+03 -1.524735260009765625e+02
-4.059027709960937500e+02 -5.907192382812500000e+02 -1.027401464843750000e+04 -5.902875900268554688e+01 -5.206187744140625000e+02 -7.402718261718750000e+03 -4.609234313964843750e+02 7.332454681396484375e+01
-7.581016235351562500e+02 -9.466680908203125000e+02 -1.354099511718750000e+04 -1.677837768554687500e+03 -1.502092163085937500e+03 -8.482845703125000000e+03 -8.158663177490234375e+01 6.722865600585937500e+02
-1.277369140625000000e+03 -8.598294067382812500e+02 -1.550475683593750000e+04 -3.290690917968750000e+03 -2.249630371093750000e+03 -8.992964843750000000e+03 -2.690123901367187500e+02 1.395421264648437500e+03
-1.634215820312500000e+03 -6.410635375976562500e+02 -1.658702539062500000e+04 -4.603283691406250000e+03 -2.995701416015625000e+03 -9.023985351562500000e+03 -5.326236572265625000e+02 1.941566040039062500e+03
-1.669166748046875000e+03 -5.078970947265625000e+02 -1.654216992187500000e+04 -5.418554199218750000e+03 -3.388546386718750000e+03 -8.274434570312500000e+03 -3.999162902832031250e+02 2.184524902343750000e+03
-1.520801147460937500e+03 -6.347972412109375000e+02 -1.526447949218750000e+04 -5.719156738281250000e+03 -3.381252685546875000e+03 -7.048134765625000000e+03 4.127610473632812500e+02 2.035389282226562500e+03
-1.118534423828125000e+03 -8.201044921875000000e+02 -1.242972363281250000e+04 -5.471153808593750000e+03 -3.258769775390625000e+03 -5.114598632812500000e+03 1.679035156250000000e+03 1.662524169921875000e+03
-3.841894531250000000e+02 -1.003077941894531250e+03 -8.525190429687500000e+03 -4.930610351562500000e+03 -2.866694335937500000e+03 -2.672054443359375000e+03 2.664680419921875000e+03 9.941264648437500000e+02
4.594325866699218750e+02 -1.217103271484375000e+03 -3.773626464843750000e+03 -3.952853515625000000e+03 -1.947519165039062500e+03 -9.676964569091796875e+01 3.168712402343750000e+03 1.148722229003906250e+02
1.127722290039062500e+03 -8.544816284179687500e+02 2.285031005859375000e+03 -2.213886474609375000e+03 -8.438579711914062500e+02 3.157741699218750000e+03 2.924505126953125000e+03 -3.429892578125000000e+02
1.632588378906250000e+03 9.039101409912109375e+01 8.207571289062500000e+03 -3.625149841308593750e+02 5.070956420898437500e+01 5.974429687500000000e+03 1.648755859375000000e+03 -4.897124633789062500e+02
2.197563720703125000e+03 8.030252075195312500e+02 1.177515136718750000e+04 1.188945800781250000e+03 1.027645263671875000e+03 7.240270019531250000e+03 1.280407409667968750e+02 -8.579275512695312500e+02
2.685510498046875000e+03 1.339587646484375000e+03 1.381803515625000000e+04 2.757224609375000000e+03 2.217661376953125000e+03 7.960593750000000000e+03 -1.043642333984375000e+03 -1.127269897460937500e+03
2.959787109375000000e+03 1.825672973632812500e+03 1.494128222656250000e+04 4.093323974609375000e+03 3.017316162109375000e+03 8.042239746093750000e+03 -1.945360473632812500e+03 -1.231562500000000000e+03
3.051699218750000000e+03 2.060725097656250000e+03 1.426408007812500000e+04 4.953302246093750000e+03 3.297071289062500000e+03 7.030353515625000000e+03 -2.695839111328125000e+03 -1.394862060546875000e+03
2.888861816406250000e+03 1.901611206054687500e+03 1.163354003906250000e+04 5.253287597656250000e+03 3.407577636718750000e+03 5.208114746093750000e+03 -2.901985107421875000e+03 -1.626361694335937500e+03
2.370702880859375000e+03 1.274060302734375000e+03 7.713689453125000000e+03 4.931634277343750000e+03 3.140217285156250000e+03 2.861611083984375000e+03 -2.294013427734375000e+03 -1.755907714843750000e+03
1.501190917968750000e+03 7.654397583007812500e+02 4.066485107421875000e+03 4.271262695312500000e+03 2.531280273437500000e+03 6.280252685546875000e+02 -1.721686645507812500e+03 -1.403630004882812500e+03
5.676799926757812500e+02 4.755424499511718750e+02 3.093323364257812500e+02 3.315899169921875000e+03 1.821280517578125000e+03 -1.494980957031250000e+03 -1.301119628906250000e+03 -8.774132690429687500e+02
-2.644522399902343750e+02 -1.249580078125000000e+02 -4.691862304687500000e+03 1.984113647460937500e+03 8.046589965820312500e+02 -3.914529785156250000e+03 -4.000592651367187500e+02 -5.777468872070312500e+02
-9.791874389648437500e+02 -7.626326904296875000e+02 -9.194981445312500000e+03 3.547036132812500000e+02 -3.039031066894531250e+02 -6.023461914062500000e+03 7.307083740234375000e+02 -1.820740356445312500e+02
-1.409025512695312500e+03 -8.687874755859375000e+02 -1.154372363281250000e+04 -1.257776733398437500e+03 -1.208797607421875000e+03 -7.025318847656250000e+03 1.410280151367187500e+03 4.911998291015625000e+02
-1.748149902343750000e+03 -5.620783081054687500e+02 -1.285179101562500000e+04 -2.670780273437500000e+03 -1.994657470703125000e+03 -7.333587402343750000e+03 1.414390014648437500e+03 1.181641845703125000e+03
-2.148382568359375000e+03 -1.493653259277343750e+02 -1.358825292968750000e+04 -3.937978271484375000e+03 -2.569072998046875000e+03 -7.249479980468750000e+03 1.122615112304687500e+03 1.745420654296875000e+03
-2.200414306640625000e+03 9.793972015380859375e+01 -1.311077734375000000e+04 -4.790957031250000000e+03 -2.991304199218750000e+03 -6.600890625000000000e+03 9.976123046875000000e+02 1.957781005859375000e+03
-2.008656616210937500e+03 2.120940017700195312e+01 -1.146792187500000000e+04 -5.019295898437500000e+03 -3.164407714843750000e+03 -5.317318847656250000e+03 1.297707397460937500e+03 1.746314819335937500e+03
-1.739519409179687500e+03 -2.505759735107421875e+02 -8.535392578125000000e+03 -4.724439453125000000e+03 -2.923348388671875000e+03 -3.279096191406250000e+03 1.759377075195312500e+03 1.297750366210937500e+03
-1.166496337890625000e+03 -6.687371826171875000e+02 -4.720725097656250000e+03 -3.994790771484375000e+03 -2.438398193359375000e+03 -8.734428100585937500e+02 1.846655761718750000e+03 5.981325683593750000e+02
-6.161908569335937500e+02 -1.051491088867187500e+03 -5.470697631835937500e+02 -2.910136962890625000e+03 -1.702627563476562500e+03 1.430368041992187500e+03 1.312867675781250000e+03 -1.470326995849609375e+02
-2.483171844482421875e+02 -9.305147094726562500e+02 4.664918945312500000e+03 -1.540157958984375000e+03 -8.150527954101562500e+02 4.053496093750000000e+03 1.818646240234375000e+02 -4.716257934570312500e+02
1.992359924316406250e+02 -3.373933105468750000e+02 9.873269531250000000e+03 -1.359117431640625000e+02 1.085054321289062500e+02 6.567534179687500000e+03 -1.161336425781250000e+03 -4.801918640136718750e+02
6.678491821289062500e+02 9.437168121337890625e+01 1.282540136718750000e+04 1.203164672851562500e+03 9.873235473632812500e+02 7.833060546875000000e+03 -2.275406250000000000e+03 -6.831278686523437500e+02
9.821101684570312500e+02 3.892591857910156250e+02 1.439011718750000000e+04 2.664938232421875000e+03 1.759675170898437500e+03 8.371723632812500000e+03 -3.053413085937500000e+03 -8.750003051757812500e+02
1.114999755859375000e+03 8.006848144531250000e+02 1.496161523437500000e+04 3.911016357421875000e+03 2.511962890625000000e+03 8.141083007812500000e+03 -3.669748291015625000e+03 -8.593333740234375000e+02
1.044132446289062500e+03 1.051105590820312500e+03 1.356768847656250000e+04 4.590891113281250000e+03 3.010614013671875000e+03 6.849194335937500000e+03 -4.103363769531250000e+03 -8.627908325195312500e+02
8.465589599609375000e+02 8.709432983398437500e+02 1.064093066406250000e+04 4.629473144531250000e+03 2.967699218750000000e+03 4.873799316406250000e+03 -3.745214355468750000e+03 -9.711482543945312500e+02
6.458438110351562500e+02 2.982750549316406250e+02 6.701234375000000000e+03 4.219491210937500000e+03 2.637185302734375000e+03 2.338148925781250000e+03 -2.539311767578125000e+03 -1.068679565429687500e+03
3.210145568847656250e+02 -9.209481811523437500e+01 2.842391601562500000e+03 3.803485839843750000e+03 2.323271240234375000e+03 3.962133407592773438e+01 -1.247110961914062500e+03 -8.072763061523437500e+02
-1.140837478637695312e+02 -1.206604461669921875e+02 -7.837859497070312500e+02 3.090678222656250000e+03 1.751044433593750000e+03 -2.073958007812500000e+03 -1.620261077880859375e+02 -3.207530822753906250e+02
-4.214237365722656250e+02 -4.317255859375000000e+02 -5.319613281250000000e+03 1.763184082031250000e+03 8.936829833984375000e+02 -4.490786621093750000e+03 8.816262207031250000e+02 -1.709933400154113770e+00
-6.503013305664062500e+02 -1.032644897460937500e+03 -9.485326171875000000e+03 2.262870635986328125e+02 -3.453539657592773438e+01 -6.308388183593750000e+03 1.944996582031250000e+03 3.042422485351562500e+02
-9.389188842773437500e+02 -1.159518676757812500e+03 -1.147018164062500000e+04 -1.237648193359375000e+03 -1.066429443359375000e+03 -6.953161621093750000e+03 2.527842529296875000e+03 9.303836059570312500e+02
-1.283857055664062500e+03 -7.527621459960937500e+02 -1.230961328125000000e+04 -2.598494384765625000e+03 -1.947456665039062500e+03 -7.022400878906250000e+03 2.386651123046875000e+03 1.689179321289062500e+03
-1.582737670898437500e+03 -2.334325561523437500e+02 -1.257269433593750000e+04 -3.679742187500000000e+03 -2.523936523437500000e+03 -6.655058105468750000e+03 2.067542480468750000e+03 2.174621826171875000e+03
-1.543146728515625000e+03 1.800443420410156250e+02 -1.174536035156250000e+04 -4.391041992187500000e+03 -2.817045166015625000e+03 -5.857196289062500000e+03 1.792447875976562500e+03 2.237661865234375000e+03
-1.175473144531250000e+03 2.194158020019531250e+02 -9.864031250000000000e+03 -4.648031738281250000e+03 -2.886317138671875000e+03 -4.574053710937500000e+03 1.897357910156250000e+03 1.909497192382812500e+03
-7.694413452148437500e+02 -6.648176574707031250e+01 -6.642209472656250000e+03 -4.322908691406250000e+03 -2.841245605468750000e+03 -2.461901367187500000e+03 2.496586181640625000e+03 1.379960571289062500e+03
-3.905514526367187500e+02 -4.926177368164062500e+02 -2.787991210937500000e+03 -3.706447021484375000e+03 -2.435851806640625000e+03 -8.692848205566406250e+01 2.835580566406250000e+03 6.715876464843750000e+02
3.362322616577148438e+01 -9.909335937500000000e+02 9.985786132812500000e+02 -2.871572753906250000e+03 -1.652940795898437500e+03 2.091001708984375000e+03 2.750825683593750000e+03 -2.043238677978515625e+02
4.202546691894531250e+02 -9.358821411132812500e+02 5.788705078125000000e+03 -1.381906372070312500e+03 -5.471276855468750000e+02 4.514001953125000000e+03 2.155341064453125000e+03 -6.307951049804687500e+02
6.527885131835937500e+02 -2.332535095214843750e+02 1.048539355468750000e+04 2.320777282714843750e+02 7.467050781250000000e+02 6.668705078125000000e+03 7.349455566406250000e+02 -5.840316162109375000e+02
8.220257568359375000e+02 2.438318023681640625e+02 1.276139941406250000e+04 1.344176269531250000e+03 1.677064331054687500e+03 7.462255371093750000e+03 -6.715418090820312500e+02 -7.982944335937500000e+02
7.808020019531250000e+02 6.119178466796875000e+02 1.361691015625000000e+04 2.558618408203125000e+03 2.033658691406250000e+03 7.511054687500000000e+03 -1.605819824218750000e+03 -1.031580688476562500e+03
5.122056884765625000e+02 1.112114501953125000e+03 1.347647753906250000e+04 3.560495361328125000e+03 2.022846801757812500e+03 7.109516601562500000e+03 -2.500745117187500000e+03 -1.064020507812500000e+03
2.866413879394531250e+02 1.314895385742187500e+03 1.176051757812500000e+04 3.875426757812500000e+03 2.256937255859375000e+03 5.718655273437500000e+03 -3.040697509765625000e+03 -1.145598632812500000e+03
7.309882354736328125e+01 1.178058593750000000e+03 8.760666992187500000e+03 4.087726562500000000e+03 2.574006103515625000e+03 3.622219726562500000e+03 -2.844547363281250000e+03 -1.243110107421875000e+03
-1.817892456054687500e+02 8.125627441406250000e+02 4.721395019531250000e+03 3.955228515625000000e+03 2.315735595703125000e+03 1.246967895507812500e+03 -2.128476074218750000e+03 -1.224088256835937500e+03
-6.341916503906250000e+02 5.159736328125000000e+02 9.436272583007812500e+02 3.336817871093750000e+03 1.961420898437500000e+03 -7.403491821289062500e+02 -1.352582519531250000e+03 -8.464508056640625000e+02
-1.086952026367187500e+03 3.917286071777343750e+02 -2.433165771484375000e+03 2.486419921875000000e+03 1.618167602539062500e+03 -2.499494140625000000e+03 -6.645606689453125000e+02 -3.698543701171875000e+02
-1.009271667480468750e+03 -7.639091491699218750e+00 -6.345416503906250000e+03 1.146775634765625000e+03 7.471417236328125000e+02 -4.655009765625000000e+03 2.342097930908203125e+02 -1.925241851806640625e+02
-7.257874145507812500e+02 -6.139161987304687500e+02 -9.793347656250000000e+03 -3.191792297363281250e+02 -2.517434082031250000e+02 -6.258285156250000000e+03 1.208983154296875000e+03 -3.843747711181640625e+01
-6.435544433593750000e+02 -7.006496582031250000e+02 -1.146684570312500000e+04 -1.425302978515625000e+03 -9.715098266601562500e+02 -6.779943359375000000e+03 1.647725219726562500e+03 5.059855651855468750e+02
-6.817265625000000000e+02 -2.174162292480468750e+02 -1.192026171875000000e+04 -2.381170898437500000e+03 -1.777321044921875000e+03 -6.777474609375000000e+03 1.405543701171875000e+03 1.237986816406250000e+03
-6.808393554687500000e+02 2.682217407226562500e+02 -1.169563964843750000e+04 -3.279841796875000000e+03 -2.395421386718750000e+03 -6.204311523437500000e+03 9.932655639648437500e+02 1.668169311523437500e+03
-5.132123413085937500e+02 5.280455322265625000e+02 -1.061552734375000000e+04 -3.837341796875000000e+03 -2.433377929687500000e+03 -5.296035156250000000e+03 7.134304809570312500e+02 1.721705810546875000e+03
-2.972129516601562500e+02 5.086436157226562500e+02 -8.684415039062500000e+03 -3.852563232421875000e+03 -2.150812744140625000e+03 -3.927806396484375000e+03 7.100151977539062500e+02 1.521244506835937500e+03
1.885343475341796875e+02 1.279664306640625000e+02 -5.842469726562500000e+03 -3.582741699218750000e+03 -2.023868896484375000e+03 -1.919786987304687500e+03 1.126733642578125000e+03 1.061095947265625000e+03
1.021706604003906250e+03 -5.604737548828125000e+02 -2.533794189453125000e+03 -3.177009765625000000e+03 -2.100618408203125000e+03 5.680130958557128906e+00 1.522352172851562500e+03 3.687967529296875000e+02
1.716738281250000000e+03 -1.311866088867187500e+03 8.967932128906250000e+02 -2.365968994140625000e+03 -1.545327514648437500e+03 1.938575561523437500e+03 1.641234741210937500e+03 -4.077638549804687500e+02
2.077403320312500000e+03 -1.469049804687500000e+03 5.128445800781250000e+03 -1.115343872070312500e+03 -5.632028808593750000e+02 4.163000000000000000e+03 1.365378784179687500e+03 -7.613646240234375000e+02
2.156939208984375000e+03 -8.776048583984375000e+02 9.238189453125000000e+03 1.727005920410156250e+02 2.407933502197265625e+02 5.988712402343750000e+03 3.466383361816406250e+02 -6.842055053710937500e+02
2.201783203125000000e+03 -3.585630798339843750e+02 1.132207226562500000e+04 1.296381469726562500e+03 1.010733886718750000e+03 6.753993164062500000e+03 -8.002329711914062500e+02 -8.837130126953125000e+02
2.276664794921875000e+03 1.024748458862304688e+02 1.217589257812500000e+04 2.395884521484375000e+03 1.625613647460937500e+03 6.772213378906250000e+03 -1.626325561523437500e+03 -1.040026123046875000e+03
2.260856201171875000e+03 7.640001831054687500e+02 1.216295019531250000e+04 3.200100341796875000e+03 2.249948974609375000e+03 6.235441894531250000e+03 -2.448826416015625000e+03 -8.671096191406250000e+02
2.378724853515625000e+03 1.133912841796875000e+03 1.053375585937500000e+04 3.723474853515625000e+03 2.623155517578125000e+03 5.177236816406250000e+03 -2.908608886718750000e+03 -8.863020019531250000e+02
2.416763916015625000e+03 1.077978393554687500e+03 7.881178222656250000e+03 4.027578613281250000e+03 2.561202148437500000e+03 3.611736328125000000e+03 -2.697665283203125000e+03 -1.049790527343750000e+03
2.084257812500000000e+03 7.663198242187500000e+02 4.749986816406250000e+03 3.767490722656250000e+03 2.397101074218750000e+03 1.460640991210937500e+03 -2.060293212890625000e+03 -1.077903686523437500e+03
1.691251342773437500e+03 5.163984375000000000e+02 1.629271362304687500e+03 3.274218994140625000e+03 1.851956787109375000e+03 -3.782110290527343750e+02 -1.278196411132812500e+03 -8.593690795898437500e+02
1.167090087890625000e+03 4.559812927246093750e+02 -1.330918090820312500e+03 2.540554931640625000e+03 1.254099365234375000e+03 -1.876193969726562500e+03 -6.262743530273437500e+02 -4.448741455078125000e+02
5.814693603515625000e+02 6.694797515869140625e+01 -4.944091796875000000e+03 1.320684814453125000e+03 6.039854125976562500e+02 -3.748810546875000000e+03 1.944090270996093750e+01 -2.488354644775390625e+02
2.736970214843750000e+02 -6.072420654296875000e+02 -8.326456054687500000e+03 5.508559799194335938e+01 -3.853592529296875000e+02 -5.206136718750000000e+03 8.041125488281250000e+02 -1.775861511230468750e+02
1.435745697021484375e+02 -8.215078125000000000e+02 -9.686945312500000000e+03 -1.072977539062500000e+03 -1.092695434570312500e+03 -5.689687011718750000e+03 1.208706298828125000e+03 2.702219543457031250e+02
1.896029968261718750e+02 -5.714862060546875000e+02 -1.000251757812500000e+04 -2.138529785156250000e+03 -1.675077270507812500e+03 -5.719478027343750000e+03 1.018733703613281250e+03 8.022604980468750000e+02
1.413266296386718750e+02 -7.719031524658203125e+01 -1.007469726562500000e+04 -3.124641357421875000e+03 -2.259988769531250000e+03 -5.469761718750000000e+03 5.439138183593750000e+02 1.213713989257812500e+03
-1.506960839033126831e-01 3.828998718261718750e+02 -9.616314453125000000e+03 -3.891520019531250000e+03 -2.605829833984375000e+03 -4.988411621093750000e+03 1.131094970703125000e+02 1.483748291015625000e+03
1.476230926513671875e+02 2.907847595214843750e+02 -8.550446289062500000e+03 -4.155549316406250000e+03 -2.712985839843750000e+03 -4.010059326171875000e+03 3.581314392089843750e+02 1.348864013671875000e+03
2.525005493164062500e+02 -1.150463562011718750e+02 -6.248053222656250000e+03 -3.926983642578125000e+03 -2.445348632812500000e+03 -2.200991943359375000e+03 1.133107543945312500e+03 1.023282104492187500e+03
2.123236541748046875e+02 -5.381144409179687500e+02 -3.325051269531250000e+03 -3.369188232421875000e+03 -1.940889038085937500e+03 -9.236293029785156250e+01 1.673023437500000000e+03 6.178992309570312500e+02
1.968640441894531250e+02 -1.079325073242187500e+03 -3.347456359863281250e+02 -2.467909423828125000e+03 -1.276075561523437500e+03 1.656471069335937500e+03 2.043829345703125000e+03 6.778817749023437500e+01
4.695851325988769531e+00 -1.186335815429687500e+03 3.718449218750000000e+03 -1.180859252929687500e+03 -4.921099548339843750e+02 3.459592529296875000e+03 2.038356445312500000e+03 -1.539341278076171875e+02
-2.261391143798828125e+02 -5.565735473632812500e+02 7.862144531250000000e+03 1.999556427001953125e+02 2.594694519042968750e+02 5.320133789062500000e+03 1.153251098632812500e+03 -5.399497604370117188e+01
-2.079516906738281250e+02 3.776325225830078125e+00 9.991713867187500000e+03 1.191015380859375000e+03 9.109581298828125000e+02 6.027199218750000000e+03 5.099377441406250000e+01 -2.343720245361328125e+02
-7.533743286132812500e+01 3.486522827148437500e+02 1.087069140625000000e+04 2.045381469726562500e+03 1.484784912109375000e+03 5.974707519531250000e+03 -7.484709472656250000e+02 -4.412573852539062500e+02
-1.054877014160156250e+02 8.254689331054687500e+02 1.112273925781250000e+04 2.918729492187500000e+03 1.875826416015625000e+03 5.721794921875000000e+03 -1.593831787109375000e+03 -3.896816406250000000e+02
-3.144335937500000000e+02 1.172536376953125000e+03 1.008666015625000000e+04 3.365697021484375000e+03 2.218614746093750000e+03 4.793266113281250000e+03 -2.292581054687500000e+03 -3.889305725097656250e+02
-5.691356201171875000e+02 1.061058105468750000e+03 7.804146484375000000e+03 3.595920410156250000e+03 2.615918945312500000e+03 3.244670898437500000e+03 -2.325854003906250000e+03 -5.604409790039062500e+02
-1.094629028320312500e+03 5.962792358398437500e+02 4.805886230468750000e+03 3.566201171875000000e+03 2.459515869140625000e+03 1.310312988281250000e+03 -1.814498168945312500e+03 -6.676231689453125000e+02
-1.856550781250000000e+03 2.576040649414062500e+02 2.104268554687500000e+03 2.927642822265625000e+03 1.946728027343750000e+03 -2.406736450195312500e+02 -1.198301025390625000e+03 -4.629205627441406250e+02
-2.453340820312500000e+03 8.007257080078125000e+01 -4.908201293945312500e+02 2.158155273437500000e+03 1.415981323242187500e+03 -1.394017211914062500e+03 -6.413088989257812500e+02 -1.032687759399414062e+02
-2.823274902343750000e+03 -3.520282592773437500e+02 -3.916969970703125000e+03 1.343385864257812500e+03 6.730939331054687500e+02 -3.106474121093750000e+03 2.193325424194335938e+01 6.814985656738281250e+01
-3.017838378906250000e+03 -9.380816040039062500e+02 -7.128033203125000000e+03 3.516877441406250000e+02 1.293091125488281250e+02 -4.706021972656250000e+03 8.208059082031250000e+02 1.229688796997070312e+02
-3.252550292968750000e+03 -1.058702026367187500e+03 -8.630640625000000000e+03 -6.469450683593750000e+02 -4.852905883789062500e+02 -5.239703613281250000e+03 1.236470825195312500e+03 4.559929809570312500e+02
-3.460386230468750000e+03 -6.940181274414062500e+02 -9.090570312500000000e+03 -1.693981323242187500e+03 -1.373945922851562500e+03 -5.350690429687500000e+03 1.034767089843750000e+03 9.387191772460937500e+02
-3.372321044921875000e+03 -1.553750610351562500e+02 -9.146814453125000000e+03 -2.541775878906250000e+03 -1.850700439453125000e+03 -5.109851074218750000e+03 5.731429443359375000e+02 1.374808715820312500e+03
-2.955384033203125000e+03 3.258093566894531250e+02 -8.765046875000000000e+03 -3.113548828125000000e+03 -2.030683715820312500e+03 -4.367190917968750000e+03 2.212571258544921875e+02 1.607669189453125000e+03
-2.227701904296875000e+03 4.183910522460937500e+02 -7.857146484375000000e+03 -3.289431884765625000e+03 -2.139342285156250000e+03 -3.446253173828125000e+03 4.236130676269531250e+02 1.383908203125000000e+03
-1.556970214843750000e+03 2.934064636230468750e+02 -5.771715332031250000e+03 -2.983293701171875000e+03 -1.930351806640625000e+03 -2.040124267578125000e+03 1.054060668945312500e+03 9.552789306640625000e+02
-9.576253662109375000e+02 -1.136048316955566406e+01 -3.039580078125000000e+03 -2.598386230468750000e+03 -1.573486206054687500e+03 -4.002460632324218750e+02 1.524912963867187500e+03 3.770317687988281250e+02
-2.777231445312500000e+02 -5.648055419921875000e+02 -3.722479248046875000e+02 -1.859358154296875000e+03 -1.222073974609375000e+03 1.127303344726562500e+03 1.762089721679687500e+03 -3.776291503906250000e+02
1.799669952392578125e+02 -6.300396728515625000e+02 3.193379882812500000e+03 -7.825546875000000000e+02 -7.201616210937500000e+02 3.078841064453125000e+03 1.524142822265625000e+03 -7.137496948242187500e+02
6.345161743164062500e+02 -3.514462661743164062e+01 6.938375976562500000e+03 2.190792465209960938e+01 -1.992413940429687500e+02 4.805909179687500000e+03 4.880777893066406250e+02 -6.457143554687500000e+02
1.342303955078125000e+03 4.250785827636718750e+02 8.899376953125000000e+03 7.490655517578125000e+02 4.312431335449218750e+02 5.279892089843750000e+03 -6.523649291992187500e+02 -8.671687622070312500e+02
1.935820678710937500e+03 7.248308105468750000e+02 9.903638671875000000e+03 1.665829711914062500e+03 1.248445068359375000e+03 5.385272949218750000e+03 -1.363856689453125000e+03 -1.134356689453125000e+03
2.215153076171875000e+03 1.084396728515625000e+03 1.027345800781250000e+04 2.470680419921875000e+03 1.859997802734375000e+03 5.296149414062500000e+03 -2.026496704101562500e+03 -1.128438110351562500e+03
2.074587158203125000e+03 1.189687011718750000e+03 9.263125000000000000e+03 2.841560791015625000e+03 2.197503417968750000e+03 4.355436035156250000e+03 -2.583453369140625000e+03 -1.174583496093750000e+03
1.355401611328125000e+03 9.493036499023437500e+02 7.234799316406250000e+03 2.892083740234375000e+03 2.100853027343750000e+03 2.859739013671875000e+03 -2.538723876953125000e+03 -1.289624267578125000e+03
3.911833801269531250e+02 4.165030822753906250e+02 4.450637207031250000e+03 2.789612548828125000e+03 1.545243896484375000e+03 1.069354858398437500e+03 -1.813381958007812500e+03 -1.334846923828125000e+03
-2.943420104980468750e+02 -1.263808746337890625e+02 1.736692504882812500e+03 2.325143310546875000e+03 1.052937377929687500e+03 -4.647728576660156250e+02 -8.777893066406250000e+02 -1.151355468750000000e+03
-6.039397583007812500e+02 -4.157679748535156250e+02 -7.809537963867187500e+02 1.575794311523437500e+03 9.013059082031250000e+02 -1.594490356445312500e+03 -1.767293090820312500e+02 -6.817009277343750000e+02
-7.672108764648437500e+02 -8.175250854492187500e+02 -3.949739501953125000e+03 7.968868408203125000e+02 6.156348876953125000e+02 -3.061811523437500000e+03 4.968833923339843750e+02 -2.903051452636718750e+02
-8.682144775390625000e+02 -1.282716552734375000e+03 -6.771073242187500000e+03 -1.235013961791992188e+02 -1.608933410644531250e+02 -4.440203613281250000e+03 1.249345336914062500e+03 7.228170776367187500e+01
-7.518178710937500000e+02 -1.250342529296875000e+03 -8.032744140625000000e+03 -1.060717163085937500e+03 -1.057361694335937500e+03 -4.819226074218750000e+03 1.648618896484375000e+03 6.992707519531250000e+02
-5.200573730468750000e+02 -8.109132080078125000e+02 -8.351306640625000000e+03 -1.831570190429687500e+03 -1.626281005859375000e+03 -4.664832519531250000e+03 1.454780517578125000e+03 1.369958618164062500e+03
-3.035613403320312500e+02 -2.512248535156250000e+02 -8.196253906250000000e+03 -2.539680908203125000e+03 -1.632090576171875000e+03 -4.367487792968750000e+03 9.273694458007812500e+02 1.934209716796875000e+03
2.040663146972656250e+01 1.590388336181640625e+02 -7.811304199218750000e+03 -3.051538818359375000e+03 -1.659732421875000000e+03 -3.859812255859375000e+03 6.045223388671875000e+02 2.083061035156250000e+03
3.234426879882812500e+02 2.954418334960937500e+02 -6.978831054687500000e+03 -3.164264892578125000e+03 -1.645032958984375000e+03 -3.059127441406250000e+03 7.129261474609375000e+02 1.781468383789062500e+03
5.047973937988281250e+02 3.251268615722656250e+02 -5.059493164062500000e+03 -2.844635742187500000e+03 -1.358948120117187500e+03 -1.648705322265625000e+03 1.063308349609375000e+03 1.389111694335937500e+03
7.864912109375000000e+02 6.386121368408203125e+01 -2.539454101562500000e+03 -2.349353759765625000e+03 -1.393432250976562500e+03 2.367119789123535156e+00 1.461389770507812500e+03 6.827653198242187500e+02
1.211375488281250000e+03 -4.424335937500000000e+02 1.105165176391601562e+02 -1.795241577148437500e+03 -1.174727172851562500e+03 1.378004272460937500e+03 1.713749877929687500e+03 -2.305297088623046875e+02
1.428705200195312500e+03 -5.140117797851562500e+02 3.493595703125000000e+03 -8.888482666015625000e+02 -5.666942138671875000e+02 2.964754882812500000e+03 1.422517944335937500e+03 -7.126868896484375000e+02
1.250021850585937500e+03 7.214330291748046875e+01 6.985406250000000000e+03 8.659298706054687500e+01 5.032781982421875000e+01 4.519951660156250000e+03 3.383603210449218750e+02 -8.396530151367187500e+02
1.011937744140625000e+03 6.360253295898437500e+02 8.689354492187500000e+03 9.167546386718750000e+02 6.969039306640625000e+02 5.101151367187500000e+03 -8.984893188476562500e+02 -1.102934936523437500e+03
8.762727050781250000e+02 9.184732666015625000e+02 9.213388671875000000e+03 1.722941650390625000e+03 1.252579711914062500e+03 5.168460449218750000e+03 -1.704907958984375000e+03 -1.414289306640625000e+03
7.360244140625000000e+02 1.189193115234375000e+03 9.230195312500000000e+03 2.320250732421875000e+03 1.782568237304687500e+03 4.819758789062500000e+03 -2.358293701171875000e+03 -1.545450439453125000e+03
7.014657592773437500e+02 1.285689453125000000e+03 8.046709960937500000e+03 2.752657470703125000e+03 2.045559570312500000e+03 3.823466308593750000e+03 -2.883900146484375000e+03 -1.537701904296875000e+03
5.737773437500000000e+02 1.033486083984375000e+03 5.863850097656250000e+03 2.929633300781250000e+03 2.106828613281250000e+03 2.450873779296875000e+03 -2.813883300781250000e+03 -1.551021972656250000e+03
9.677347564697265625e+01 4.733578796386718750e+02 3.091668945312500000e+03 2.854348388671875000e+03 1.926927978515625000e+03 7.899973144531250000e+02 -2.027457275390625000e+03 -1.548916137695312500e+03
-5.944498901367187500e+02 -3.102765083312988281e+01 6.948651123046875000e+02 2.550997314453125000e+03 1.308437500000000000e+03 -5.281149902343750000e+02 -1.113072021484375000e+03 -1.160050415039062500e+03
-1.442510742187500000e+03 -2.583651428222656250e+02 -1.313054687500000000e+03 1.806650390625000000e+03 7.825587158203125000e+02 -1.585301147460937500e+03 -4.088415832519531250e+02 -5.633606567382812500e+02
-2.114316650390625000e+03 -7.332308959960937500e+02 -4.046609375000000000e+03 8.806688232421875000e+02 5.136417846679687500e+02 -3.033886718750000000e+03 4.648050537109375000e+02 -3.397700805664062500e+02
-2.553330810546875000e+03 -1.249668334960937500e+03 -6.464091796875000000e+03 1.037482986450195312e+02 1.169232254028320312e+02 -4.209930664062500000e+03 1.392103027343750000e+03 -1.669095916748046875e+02
-2.888460449218750000e+03 -1.124594360351562500e+03 -7.354008789062500000e+03 -5.568388671875000000e+02 -5.921607055664062500e+02 -4.502746093750000000e+03 1.793073364257812500e+03 3.947918090820312500e+02
-2.544153564453125000e+03 -6.565144042968750000e+02 -7.621361328125000000e+03 -1.385618164062500000e+03 -1.289676147460937500e+03 -4.283420410156250000e+03 1.610047363281250000e+03 9.363681640625000000e+02
-1.621435180664062500e+03 -4.575342178344726562e+01 -7.475986816406250000e+03 -2.187176757812500000e+03 -1.845473388671875000e+03 -3.768438232421875000e+03 1.146602050781250000e+03 1.288037475585937500e+03
-7.365065917968750000e+02 5.279276733398437500e+02 -6.913729980468750000e+03 -2.686739501953125000e+03 -2.287459472656250000e+03 -3.306339599609375000e+03 7.232008666992187500e+02 1.421429809570312500e+03
-2.083485221862792969e+01 5.753203125000000000e+02 -6.015653808593750000e+03 -2.961583740234375000e+03 -2.175544189453125000e+03 -2.698484863281250000e+03 7.461848144531250000e+02 1.192703002929687500e+03
2.909523315429687500e+02 2.465275268554687500e+02 -4.166272460937500000e+03 -2.838108398437500000e+03 -1.798345703125000000e+03 -1.375048461914062500e+03 1.149929321289062500e+03 8.152396850585937500e+02
2.380097808837890625e+02 -2.968911743164062500e+02 -1.896004516601562500e+03 -2.481640625000000000e+03 -1.606130981445312500e+03 7.042993927001953125e+01 1.396546386718750000e+03 3.271287231445312500e+02
1.651633300781250000e+02 -1.046118041992187500e+03 3.264906311035156250e+02 -1.954666503906250000e+03 -1.154626342773437500e+03 1.203985107421875000e+03 1.520412475585937500e+03 -3.009155578613281250e+02
2.377777252197265625e+02 -1.294987548828125000e+03 3.267232177734375000e+03 -8.994911499023437500e+02 -3.326967468261718750e+02 2.569165771484375000e+03 1.282280639648437500e+03 -4.765446472167968750e+02
8.086381225585937500e+02 -8.459284667968750000e+02 6.200285644531250000e+03 2.021062164306640625e+02 2.190793304443359375e+02 3.918764892578125000e+03 2.395620422363281250e+02 -2.039032745361328125e+02
1.688328247070312500e+03 -3.810877990722656250e+02 7.587917968750000000e+03 7.382292480468750000e+02 5.076832885742187500e+02 4.317552246093750000e+03 -8.487196655273437500e+02 -2.023800811767578125e+02
2.381475341796875000e+03 5.504169082641601562e+01 8.201215820312500000e+03 1.235577758789062500e+03 1.084166992187500000e+03 4.365850097656250000e+03 -1.568108520507812500e+03 -2.413713684082031250e+02
2.926595458984375000e+03 4.659426879882812500e+02 8.405876953125000000e+03 1.912193847656250000e+03 1.663500366210937500e+03 4.405927246093750000e+03 -2.182087646484375000e+03 -1.660019378662109375e+02
3.081350585937500000e+03 6.974866943359375000e+02 7.600972656250000000e+03 2.350300048828125000e+03 1.912893310546875000e+03 3.699764160156250000e+03 -2.554495605468750000e+03 -1.416059112548828125e+02
3.032155761718750000e+03 6.311112670898437500e+02 5.598539062500000000e+03 2.557030029296875000e+03 1.633604003906250000e+03 2.383645996093750000e+03 -2.347832763671875000e+03 -1.596859436035156250e+02
3.064737548828125000e+03 1.621349334716796875e+02 2.772524169921875000e+03 2.528625488281250000e+03 1.335510620117187500e+03 8.686590576171875000e+02 -1.450939208984375000e+03 -3.352832946777343750e+02
2.799158203125000000e+03 -1.310416259765625000e+02 6.789036254882812500e+02 2.312545654296875000e+03 1.711964965820312500e+03 -3.507664184570312500e+02 -5.921410522460937500e+02 -2.760375061035156250e+02
2.530098876953125000e+03 -9.695174407958984375e+01 -8.729619140625000000e+02 1.865455322265625000e+03 1.636455322265625000e+03 -1.258893920898437500e+03 -1.197137603759765625e+02 4.660346221923828125e+01
2.477326660156250000e+03 -2.429214477539062500e+02 -3.347546386718750000e+03 1.000529907226562500e+03 6.664140014648437500e+02 -2.606207031250000000e+03 4.578229980468750000e+02 1.303797760009765625e+02
2.198494384765625000e+03 -4.515693969726562500e+02 -5.806813964843750000e+03 -4.216014099121093750e+01 -3.108894653320312500e+02 -3.777821044921875000e+03 1.097780273437500000e+03 2.067092895507812500e+02
1.594317260742187500e+03 -2.896270141601562500e+02 -6.654727539062500000e+03 -9.189132080078125000e+02 -1.013115051269531250e+03 -3.861096679687500000e+03 1.377951660156250000e+03 5.979080810546875000e+02
9.101354370117187500e+02 1.664061431884765625e+02 -6.692390625000000000e+03 -1.509675903320312500e+03 -1.213604980468750000e+03 -3.751052246093750000e+03 1.130655273437500000e+03 1.011602294921875000e+03
4.015549011230468750e+02 7.634094238281250000e+02 -6.629643554687500000e+03 -1.912119262695312500e+03 -1.039581420898437500e+03 -3.683395996093750000e+03 5.643695068359375000e+02 1.332934204101562500e+03
-3.613141298294067383e+00 1.260445922851562500e+03 -6.368913574218750000e+03 -2.241410888671875000e+03 -1.213996337890625000e+03 -3.233668457031250000e+03 1.234861221313476562e+02 1.532024902343750000e+03
-4.734821472167968750e+02 1.234512207031250000e+03 -5.864404296875000000e+03 -2.481340820312500000e+03 -1.483426757812500000e+03 -2.609222900390625000e+03 2.322392883300781250e+02 1.438124023437500000e+03
-8.660684204101562500e+02 7.601979370117187500e+02 -4.271797363281250000e+03 -2.458408935546875000e+03 -1.391268798828125000e+03 -1.576090332031250000e+03 8.680446777343750000e+02 1.114527832031250000e+03
-1.109959838867187500e+03 5.602108001708984375e+01 -2.085918701171875000e+03 -2.050131591796875000e+03 -1.274662353515625000e+03 -3.812922668457031250e+02 1.501940673828125000e+03 6.633601074218750000e+02
-1.273225585937500000e+03 -7.640167236328125000e+02 -1.611270141601562500e+02 -1.404293945312500000e+03 -9.829876708984375000e+02 6.871065063476562500e+02 1.872096923828125000e+03 1.831760101318359375e+02
-1.366410034179687500e+03 -1.114392944335937500e+03 2.606013671875000000e+03 -6.664229736328125000e+02 -5.096555786132812500e+02 2.293493408203125000e+03 1.765966064453125000e+03 4.381345748901367188e+01
-1.279151367187500000e+03 -7.523027343750000000e+02 5.772808105468750000e+03 6.032652664184570312e+01 -2.505956840515136719e+01 3.778863769531250000e+03 8.958750610351562500e+02 2.338034210205078125e+02
-9.917648315429687500e+02 -3.010479736328125000e+02 7.323306640625000000e+03 8.207547607421875000e+02 5.787030639648437500e+02 4.109751953125000000e+03 -1.741217346191406250e+02 2.506394653320312500e+02
-8.463451538085937500e+02 1.767904205322265625e+02 7.813732421875000000e+03 1.476099121093750000e+03 1.029506713867187500e+03 4.227177246093750000e+03 -9.966501464843750000e+02 2.244941711425781250e+02
-8.763402099609375000e+02 6.540982666015625000e+02 7.781168945312500000e+03 1.870635742187500000e+03 1.284832031250000000e+03 4.126122558593750000e+03 -1.751774536132812500e+03 1.794254455566406250e+02
-7.374989624023437500e+02 7.513991699218750000e+02 6.786854492187500000e+03 2.289326171875000000e+03 1.296316284179687500e+03 3.258969970703125000e+03 -2.205545654296875000e+03 -9.445035552978515625e+01
-6.240957031250000000e+02 5.644733276367187500e+02 5.155623046875000000e+03 2.432922363281250000e+03 1.033619384765625000e+03 2.173042236328125000e+03 -2.109029785156250000e+03 -3.962913208007812500e+02
-8.636131591796875000e+02 1.864435424804687500e+02 2.957722900390625000e+03 2.196861572265625000e+03 1.045247680664062500e+03 8.784303588867187500e+02 -1.583385986328125000e+03 -6.423191528320312500e+02
-1.191459960937500000e+03 -4.982831573486328125e+01 8.766398925781250000e+02 1.971381835937500000e+03 1.228692382812500000e+03 -2.962450256347656250e+02 -1.013922058105468750e+03 -6.543185424804687500e+02
-1.395119018554687500e+03 1.805114746093750000e+00 -8.881451416015625000e+02 1.418895507812500000e+03 9.661922607421875000e+02 -1.175878417968750000e+03 -5.827067260742187500e+02 -4.986404113769531250e+02
-1.619963134765625000e+03 -1.854248352050781250e+02 -3.230693359375000000e+03 5.837141723632812500e+02 3.347309875488281250e+02 -2.337516601562500000e+03 3.168271064758300781e+01 -5.934559936523437500e+02
-1.886937866210937500e+03 -6.213624267578125000e+02 -5.394030761718750000e+03 -7.408432769775390625e+01 -2.057152709960937500e+02 -3.336313964843750000e+03 7.985512695312500000e+02 -7.559244384765625000e+02
-1.953291870117187500e+03 -6.552851562500000000e+02 -6.058689941406250000e+03 -6.831481933593750000e+02 -4.799054260253906250e+02 -3.442987548828125000e+03 1.139772583007812500e+03 -5.418261108398437500e+02
-1.850591796875000000e+03 -1.198174819946289062e+02 -6.015848144531250000e+03 -1.310262329101562500e+03 -8.322068481445312500e+02 -3.210997314453125000e+03 7.710419311523437500e+02 -4.951393890380859375e+01
-1.791292114257812500e+03 4.910419616699218750e+02 -5.964616210937500000e+03 -1.837441650390625000e+03 -1.285559326171875000e+03 -3.043964111328125000e+03 1.542436676025390625e+02 4.010349121093750000e+02
-1.541718261718750000e+03 7.966934204101562500e+02 -5.641834472656250000e+03 -2.247657958984375000e+03 -1.428684936523437500e+03 -2.717960449218750000e+03 -1.475030975341796875e+02 6.160996093750000000e+02
-1.104401367187500000e+03 7.418861694335937500e+02 -4.989415039062500000e+03 -2.288089599609375000e+03 -1.358535278320312500e+03 -2.262252197265625000e+03 4.936404037475585938e+01 5.845662231445312500e+02
-6.710934448242187500e+02 3.431901550292968750e+02 -3.693354003906250000e+03 -1.959652954101562500e+03 -1.224170654296875000e+03 -1.367877563476562500e+03 6.713607788085937500e+02 3.150090637207031250e+02
-2.446449737548828125e+02 -3.176131286621093750e+02 -2.016426757812500000e+03 -1.639497924804687500e+03 -9.673728637695312500e+02 -1.776921997070312500e+02 1.275338989257812500e+03 -1.408746948242187500e+02
8.497018432617187500e+01 -1.084097290039062500e+03 -3.760476989746093750e+02 -1.265793823242187500e+03 -7.772470092773437500e+02 6.543417968750000000e+02 1.575599731445312500e+03 -6.133837280273437500e+02
4.270555725097656250e+02 -1.383241577148437500e+03 2.163917236328125000e+03 -6.240608520507812500e+02 -3.565967712402343750e+02 1.856173095703125000e+03 1.475039672851562500e+03 -8.013921508789062500e+02
8.166511840820312500e+02 -9.076911621093750000e+02 5.139311035156250000e+03 6.643480682373046875e+01 4.818452148437500000e+02 3.308488525390625000e+03 6.544409179687500000e+02 -6.036022338867187500e+02
1.098539062500000000e+03 -4.517153015136718750e+02 6.441535644531250000e+03 5.916019897460937500e+02 9.192845458984375000e+02 3.637454345703125000e+03 -4.384292602539062500e+02 -5.085769958496093750e+02
1.089322387695312500e+03 -2.070586395263671875e+02 6.818665039062500000e+03 1.140508544921875000e+03 1.065959106445312500e+03 3.632006347656250000e+03 -1.130697021484375000e+03 -5.240948486328125000e+02
7.753413085937500000e+02 1.866149444580078125e+02 7.133632324218750000e+03 1.764905273437500000e+03 1.199795532226562500e+03 3.730657714843750000e+03 -1.655280151367187500e+03 -4.310899047851562500e+02
5.861633300781250000e+02 4.654501953125000000e+02 6.518046875000000000e+03 2.177549804687500000e+03 1.103958007812500000e+03 3.213237548828125000e+03 -2.039753173828125000e+03 -4.857460327148437500e+02
5.773944091796875000e+02 4.128683776855468750e+02 4.866363281250000000e+03 2.195559570312500000e+03 1.605864013671875000e+03 2.215386474609375000e+03 -1.824154907226562500e+03 -7.181795043945312500e+02
4.988101501464843750e+02 8.193972015380859375e+01 2.533288574218750000e+03 2.089568115234375000e+03 2.011722167968750000e+03 8.699798583984375000e+02 -1.055571166992187500e+03 -8.610649414062500000e+02
4.808344116210937500e+02 -8.662202453613281250e+01 6.691203613281250000e+02 2.013003906250000000e+03 1.349448242187500000e+03 -2.202426147460937500e+02 -3.188943786621093750e+02 -6.513872070312500000e+02
4.554082031250000000e+02 5.384550476074218750e+01 -8.076089477539062500e+02 1.583102783203125000e+03 8.102136840820312500e+02 -9.548775024414062500e+02 1.068895797729492188e+02 -2.727393493652343750e+02
4.481872558593750000e+02 -1.429473419189453125e+02 -3.134474609375000000e+03 8.178148803710937500e+02 2.429305877685546875e+02 -2.172032470703125000e+03 5.624700927734375000e+02 -1.867288970947265625e+02
4.103073120117187500e+02 -6.029793090820312500e+02 -5.195578125000000000e+03 1.449779205322265625e+02 -6.670543823242187500e+02 -3.250423339843750000e+03 1.164989624023437500e+03 -1.705500335693359375e+02
-1.681850051879882812e+01 -5.143367919921875000e+02 -5.780642089843750000e+03 -4.724620361328125000e+02 -9.740806274414062500e+02 -3.325938964843750000e+03 1.287723022460937500e+03 2.744405212402343750e+02
-4.521012878417968750e+02 1.123853607177734375e+02 -5.744166992187500000e+03 -1.230706420898437500e+03 -1.029519042968750000e+03 -3.155904541015625000e+03 6.731864013671875000e+02 9.145175170898437500e+02
-5.699116210937500000e+02 8.106444702148437500e+02 -5.527775878906250000e+03 -1.840692260742187500e+03 -1.378220581054687500e+03 -3.009207763671875000e+03 -1.156029586791992188e+02 1.426769653320312500e+03
-4.610596008300781250e+02 1.218104248046875000e+03 -5.199766113281250000e+03 -2.176662353515625000e+03 -1.604642578125000000e+03 -2.648550048828125000e+03 -5.809099121093750000e+02 1.643281860351562500e+03
-2.893944396972656250e+02 1.175994262695312500e+03 -4.605518066406250000e+03 -2.311672119140625000e+03 -1.208284790039062500e+03 -2.101601074218750000e+03 -4.850340270996093750e+02 1.507021728515625000e+03
-3.755122375488281250e+02 9.034166259765625000e+02 -3.224231201171875000e+03 -2.104181396484375000e+03 -5.704566650390625000e+02 -1.202641601562500000e+03 7.120275115966796875e+01 1.221919189453125000e+03
-7.284008178710937500e+02 4.396913146972656250e+02 -1.551681274414062500e+03 -1.700307373046875000e+03 -4.502058715820312500e+02 -3.535878906250000000e+02 6.413486938476562500e+02 7.573523559570312500e+02
-1.128500854492187500e+03 -2.446035766601562500e+02 9.995007514953613281e+00 -1.323938964843750000e+03 -4.539854736328125000e+02 3.920513000488281250e+02 1.030996582031250000e+03 1.421096343994140625e+02
-9.207745361328125000e+02 -6.768646240234375000e+02 2.449330566406250000e+03 -8.189536132812500000e+02 -1.389429779052734375e+02 1.820544433593750000e+03 1.125156616210937500e+03 -2.208490142822265625e+02
-4.810504150390625000e+01 -4.987946166992187500e+02 5.310102050781250000e+03 -1.109977416992187500e+02 5.090785598754882812e+01 3.295407226562500000e+03 5.509254150390625000e+02 -2.573081054687500000e+02
6.899875488281250000e+02 -2.031991424560546875e+02 6.491578125000000000e+03 5.075922241210937500e+02 1.310308380126953125e+02 3.546661132812500000e+03 -2.751457519531250000e+02 -3.878878784179687500e+02
1.279609863281250000e+03 -6.262076568603515625e+01 6.693059570312500000e+03 1.084192626953125000e+03 4.164085693359375000e+02 3.423095947265625000e+03 -6.972399902343750000e+02 -6.575767822265625000e+02
1.693067993164062500e+03 1.082082366943359375e+02 6.708072265625000000e+03 1.639681640625000000e+03 7.611672363281250000e+02 3.318861572265625000e+03 -1.033657348632812500e+03 -8.362160644531250000e+02
1.844176391601562500e+03 2.440007019042968750e+02 5.664434570312500000e+03 1.840890136718750000e+03 1.039748779296875000e+03 2.468308105468750000e+03 -1.353303833007812500e+03 -8.883726806640625000e+02
2.113543212890625000e+03 1.936511535644531250e+02 3.803283203125000000e+03 1.674520019531250000e+03 1.079025634765625000e+03 1.311991088867187500e+03 -1.126921142578125000e+03 -1.022580871582031250e+03
2.227340332031250000e+03 -1.397594604492187500e+02 1.832088867187500000e+03 1.384533447265625000e+03 9.995592651367187500e+02 2.831675109863281250e+02 -2.954822998046875000e+02 -1.205997558593750000e+03
1.961913330078125000e+03 -3.933741760253906250e+02 2.983860473632812500e+02 1.262053588867187500e+03 9.924489746093750000e+02 -4.515048522949218750e+02 4.704874267578125000e+02 -1.024462158203125000e+03
1.594430664062500000e+03 -3.456759338378906250e+02 -1.145770141601562500e+03 1.238675415039062500e+03 6.923897705078125000e+02 -9.884342651367187500e+02 8.413276977539062500e+02 -6.345920410156250000e+02
1.337606445312500000e+03 -5.195946044921875000e+02 -3.122502197265625000e+03 8.767921752929687500e+02 2.557596893310546875e+02 -1.912180297851562500e+03 1.273159790039062500e+03 -4.750715637207031250e+02
1.223913330078125000e+03 -8.683430175781250000e+02 -4.859207519531250000e+03 2.028185729980468750e+02 1.782839202880859375e+01 -2.671900878906250000e+03 1.730183715820312500e+03 -3.815240173339843750e+02
9.284609375000000000e+02 -6.960662231445312500e+02 -5.388026855468750000e+03 -3.946256103515625000e+02 -4.454810485839843750e+02 -2.769647216796875000e+03 1.625627929687500000e+03 8.725914001464843750e+00
3.574823913574218750e+02 -4.896900939941406250e+01 -5.263997558593750000e+03 -9.234751586914062500e+02 -1.002389343261718750e+03 -2.758197021484375000e+03 8.416884155273437500e+02 5.602302856445312500e+02
-8.865072631835937500e+01 6.683970336914062500e+02 -5.059149414062500000e+03 -1.351646850585937500e+03 -1.151098144531250000e+03 -2.596751953125000000e+03 -1.666756286621093750e+02 1.007512573242187500e+03
-2.166449584960937500e+02 1.179747924804687500e+03 -4.744178222656250000e+03 -1.642190551757812500e+03 -1.201647338867187500e+03 -2.304212890625000000e+03 -8.850349731445312500e+02 1.176358032226562500e+03
-3.283659362792968750e+02 1.236726928710937500e+03 -4.267448242187500000e+03 -1.912906982421875000e+03 -1.316056518554687500e+03 -1.872643188476562500e+03 -1.070911010742187500e+03 1.038840209960937500e+03
-3.816647033691406250e+02 8.598814086914062500e+02 -3.123172607421875000e+03 -1.902403320312500000e+03 -1.384027832031250000e+03 -1.016801147460937500e+03 -6.930752563476562500e+02 6.739830932617187500e+02
-3.665499267578125000e+02 1.319939575195312500e+02 -1.411590576171875000e+03 -1.607004150390625000e+03 -1.309163085937500000e+03 -1.228605270385742188e+02 -1.355433044433593750e+02 4.176776885986328125e+01
-8.431127319335937500e+02 -6.801749267578125000e+02 2.107161712646484375e+02 -1.322399536132812500e+03 -9.345215454101562500e+02 6.275140991210937500e+02 2.243152160644531250e+02 -5.920843505859375000e+02
-1.483307739257812500e+03 -1.005545837402343750e+03 2.416596191406250000e+03 -8.778128051757812500e+02 -5.447233276367187500e+02 1.830514648437500000e+03 3.110399169921875000e+02 -8.113137207031250000e+02
-1.574346923828125000e+03 -7.164754638671875000e+02 4.978658691406250000e+03 -1.602679595947265625e+02 -2.341582183837890625e+02 3.166244873046875000e+03 -1.628906707763671875e+02 -7.393952026367187500e+02
-1.399276611328125000e+03 -3.396318969726562500e+02 5.970904296875000000e+03 5.006071777343750000e+02 2.964790344238281250e+02 3.395091064453125000e+03 -8.791436767578125000e+02 -7.567214355468750000e+02
-1.293559936523437500e+03 -1.040389938354492188e+02 6.106671875000000000e+03 1.050018310546875000e+03 7.941131591796875000e+02 3.158326660156250000e+03 -1.207224487304687500e+03 -8.281399536132812500e+02
-1.163419433593750000e+03 9.290285491943359375e+01 6.212883789062500000e+03 1.492062744140625000e+03 9.886439819335937500e+02 3.110454589843750000e+03 -1.334474609375000000e+03 -8.327791748046875000e+02
-1.103363037109375000e+03 2.845149841308593750e+02 5.413089355468750000e+03 1.728757812500000000e+03 1.217170166015625000e+03 2.567635498046875000e+03 -1.430458984375000000e+03 -7.153533935546875000e+02
-1.145326416015625000e+03 2.233199920654296875e+02 3.774997558593750000e+03 1.873330566406250000e+03 1.300214843750000000e+03 1.585204101562500000e+03 -1.118269653320312500e+03 -6.638678588867187500e+02
-1.053047363281250000e+03 -2.883943176269531250e+02 1.705505737304687500e+03 1.784460571289062500e+03 1.057886718750000000e+03 4.274767456054687500e+02 -2.344482574462890625e+02 -7.508894653320312500e+02
-7.697385864257812500e+02 -6.021063842773437500e+02 1.440793609619140625e+02 1.453030029296875000e+03 1.052822509765625000e+03 -5.207335205078125000e+02 5.788877563476562500e+02 -5.128146362304687500e+02
-5.709320678710937500e+02 -4.539338989257812500e+02 -8.880079345703125000e+02 1.197432250976562500e+03 1.019708374023437500e+03 -1.140551391601562500e+03 9.499171752929687500e+02 -6.570594787597656250e+01
-6.828565063476562500e+02 -4.669356384277343750e+02 -2.779151855468750000e+03 8.783632202148437500e+02 5.985206298828125000e+02 -2.068467773437500000e+03 1.293896606445312500e+03 1.216783752441406250e+02
-9.714901123046875000e+02 -6.461477661132812500e+02 -4.714544921875000000e+03 3.067481994628906250e+02 2.570765686035156250e+02 -2.917348388671875000e+03 1.672278076171875000e+03 1.882604827880859375e+02
-1.108677001953125000e+03 -4.542533874511718750e+02 -5.063980957031250000e+03 -3.435773010253906250e+02 9.328532218933105469e+00 -2.812336914062500000e+03 1.630930175781250000e+03 5.046584167480468750e+02
-1.173127685546875000e+03 1.687928161621093750e+02 -4.859361328125000000e+03 -9.652384033203125000e+02 -2.774955139160156250e+02 -2.502856933593750000e+03 9.073168945312500000e+02 1.084462768554687500e+03
-1.476171142578125000e+03 8.557149047851562500e+02 -4.722465332031250000e+03 -1.479171752929687500e+03 -6.023250122070312500e+02 -2.386030029296875000e+03 -7.819470214843750000e+01 1.557236450195312500e+03
-1.566994873046875000e+03 1.292918457031250000e+03 -4.223957031250000000e+03 -1.836532836914062500e+03 -8.567467041015625000e+02 -1.867484863281250000e+03 -7.859297485351562500e+02 1.668242065429687500e+03
-1.151204711914062500e+03 1.387060058593750000e+03 -3.617283447265625000e+03 -1.928040283203125000e+03 -9.376663818359375000e+02 -1.361559936523437500e+03 -1.005907287597656250e+03 1.573245727539062500e+03
-4.551785278320312500e+02 1.041738281250000000e+03 -2.565296142578125000e+03 -1.739533935546875000e+03 -8.894661865234375000e+02 -8.299553833007812500e+02 -6.137465820312500000e+02 1.297012084960937500e+03
5.485358886718750000e+02 3.149903869628906250e+02 -1.210589843750000000e+03 -1.436432739257812500e+03 -6.207653808593750000e+02 5.030796051025390625e+01 3.267452621459960938e+01 7.815459594726562500e+02
1.434342163085937500e+03 -4.905797424316406250e+02 -1.104164314270019531e+01 -1.077910400390625000e+03 -4.775959167480468750e+02 7.258911132812500000e+02 5.485668945312500000e+02 2.332143859863281250e+02
1.860580688476562500e+03 -9.494074707031250000e+02 1.999346191406250000e+03 -6.531776123046875000e+02 -3.507166137695312500e+02 1.682563110351562500e+03 7.663987426757812500e+02 -2.002657127380371094e+01
2.077121337890625000e+03 -7.769224243164062500e+02 4.488675781250000000e+03 -1.203402557373046875e+02 3.683225250244140625e+01 2.815580566406250000e+03 3.383082275390625000e+02 9.015989685058593750e+01
2.088981445312500000e+03 -4.641596069335937500e+02 5.580364257812500000e+03 3.998531799316406250e+02 3.595710754394531250e+02 2.964671875000000000e+03 -3.743159790039062500e+02 1.651114807128906250e+02
1.924279296875000000e+03 -3.255842895507812500e+02 5.754917480468750000e+03 9.647080688476562500e+02 6.594243774414062500e+02 2.815333984375000000e+03 -7.464968872070312500e+02 9.641638946533203125e+01
1.884205688476562500e+03 -1.371744689941406250e+02 5.665634765625000000e+03 1.503194580078125000e+03 9.485087280273437500e+02 2.719297363281250000e+03 -9.236082153320312500e+02 2.563589859008789062e+01
1.999584960937500000e+03 9.853240966796875000e+01 4.846533691406250000e+03 1.837223754882812500e+03 1.116006347656250000e+03 2.216378173828125000e+03 -1.130823852539062500e+03 4.747906875610351562e+01
2.112884277343750000e+03 2.026938934326171875e+02 3.313740966796875000e+03 2.026602905273437500e+03 1.006624084472656250e+03 1.376382446289062500e+03 -1.033577758789062500e+03 -6.025723457336425781e+00
2.198948974609375000e+03 -4.508423614501953125e+01 1.272091674804687500e+03 1.774697998046875000e+03 8.146027832031250000e+02 2.179216461181640625e+02 -3.179499816894531250e+02 -3.205713195800781250e+02
2.143912841796875000e+03 -3.384159240722656250e+02 -2.144380035400390625e+02 1.354151367187500000e+03 6.037751464843750000e+02 -5.679086303710937500e+02 4.449888305664062500e+02 -4.992613830566406250e+02
1.859766967773437500e+03 -2.346276245117187500e+02 -1.065531005859375000e+03 1.103130493164062500e+03 1.572777099609375000e+02 -9.901357421875000000e+02 7.426160888671875000e+02 -4.053979187011718750e+02
1.501407348632812500e+03 -1.375764770507812500e+02 -2.607812255859375000e+03 5.768729248046875000e+02 -9.287425231933593750e+01 -1.803597900390625000e+03 9.919534301757812500e+02 -4.022294006347656250e+02
1.111172607421875000e+03 -3.522700195312500000e+02 -4.212079589843750000e+03 -9.047451019287109375e+01 -2.520376281738281250e+02 -2.461125732421875000e+03 1.457397583007812500e+03 -5.335064697265625000e+02
5.655828857421875000e+02 -2.373384094238281250e+02 -4.331950683593750000e+03 -4.757136535644531250e+02 -4.701984863281250000e+02 -2.367459472656250000e+03 1.496898803710937500e+03 -3.710557861328125000e+02
-9.591296386718750000e+01 4.028274536132812500e+02 -3.954794433593750000e+03 -6.905573730468750000e+02 -5.649851684570312500e+02 -2.093034912109375000e+03 6.877592773437500000e+02 7.994857025146484375e+01
-7.672243041992187500e+02 1.067058959960937500e+03 -3.958449218750000000e+03 -1.044364013671875000e+03 -6.723137817382812500e+02 -1.971787109375000000e+03 -3.238852233886718750e+02 4.054549255371093750e+02
-1.615934448242187500e+03 1.511696655273437500e+03 -3.815551269531250000e+03 -1.449164184570312500e+03 -7.890265502929687500e+02 -1.792590942382812500e+03 -1.017701293945312500e+03 5.233807373046875000e+02
-2.682731201171875000e+03 1.462113281250000000e+03 -3.546842529296875000e+03 -1.652328369140625000e+03 -1.093527343750000000e+03 -1.554985595703125000e+03 -1.115575683593750000e+03 4.141602783203125000e+02
-3.504175781250000000e+03 9.323186645507812500e+02 -2.535388916015625000e+03 -1.693161499023437500e+03 -1.378570556640625000e+03 -9.552222290039062500e+02 -5.710742187500000000e+02 2.020988159179687500e+02
-3.916109375000000000e+03 1.921271972656250000e+02 -1.110135864257812500e+03 -1.485939697265625000e+03 -1.224944580078125000e+03 -8.608267211914062500e+01 1.420079231262207031e+01 -6.580155849456787109e+00
-4.008596923828125000e+03 -7.343853149414062500e+02 -2.839595031738281250e+02 -1.131479003906250000e+03 -9.529265136718750000e+02 3.982549438476562500e+02 5.984999389648437500e+02 -3.845186157226562500e+02
-3.750088134765625000e+03 -1.197922851562500000e+03 1.604367065429687500e+03 -7.254057617187500000e+02 -6.296683349609375000e+02 1.332441528320312500e+03 9.116128540039062500e+02 -4.679922790527343750e+02
-3.281128662109375000e+03 -9.186630859375000000e+02 4.115987304687500000e+03 -2.476535797119140625e+02 -1.733568420410156250e+02 2.545406738281250000e+03 3.721325683593750000e+02 -9.854656982421875000e+01
-2.551583007812500000e+03 -7.176881103515625000e+02 4.666454589843750000e+03 1.765798950195312500e+02 1.801844635009765625e+02 2.523734619140625000e+03 -3.017128601074218750e+02 3.069559288024902344e+01
-1.555653930664062500e+03 -5.668897705078125000e+02 4.654387207031250000e+03 7.970143432617187500e+02 6.240884399414062500e+02 2.326648193359375000e+03 -6.503417358398437500e+02 4.205183410644531250e+01
-6.246823730468750000e+02 -2.251610260009765625e+02 4.864597656250000000e+03 1.411338500976562500e+03 1.003894348144531250e+03 2.491989990234375000e+03 -9.701924438476562500e+02 1.332026824951171875e+02
1.252396087646484375e+02 1.010778617858886719e+01 4.293909179687500000e+03 1.649364379882812500e+03 1.102323974609375000e+03 2.076946777343750000e+03 -1.171871582031250000e+03 1.180618667602539062e+02
8.160710449218750000e+02 5.614364624023437500e+01 3.088410888671875000e+03 1.603566650390625000e+03 1.280911010742187500e+03 1.159077026367187500e+03 -1.042629882812500000e+03 -2.677375030517578125e+01
1.527595825195312500e+03 -1.956539611816406250e+02 1.389889160156250000e+03 1.383153930664062500e+03 1.270548706054687500e+03 1.298094177246093750e+01 -4.067650451660156250e+02 -3.159307556152343750e+02
2.190133056640625000e+03 -4.039306945800781250e+02 2.797683715820312500e+02 1.315423706054687500e+03 1.081562622070312500e+03 -5.543358154296875000e+02 3.720716552734375000e+02 -4.154244689941406250e+02
2.579564941406250000e+03 -2.483754730224609375e+02 -2.010538177490234375e+02 1.176592041015625000e+03 9.309262084960937500e+02 -5.294843139648437500e+02 7.435429077148437500e+02 -2.080518493652343750e+02
2.628035644531250000e+03 -2.493372497558593750e+02 -1.546602172851562500e+03 6.222233276367187500e+02 2.284652252197265625e+02 -1.174789062500000000e+03 1.002333557128906250e+03 -1.492932739257812500e+02
2.404064697265625000e+03 -4.595233764648437500e+02 -3.152834228515625000e+03 -3.520159530639648438e+01 -5.009886779785156250e+02 -1.925225463867187500e+03 1.351581298828125000e+03 -2.011512908935546875e+02
2.160743896484375000e+03 -2.509159545898437500e+02 -3.491939697265625000e+03 -5.718230590820312500e+02 -4.553456115722656250e+02 -1.826328491210937500e+03 1.265208374023437500e+03 5.062623596191406250e+01
2.086444824218750000e+03 3.421153564453125000e+02 -3.342327392578125000e+03 -8.514406738281250000e+02 -2.182106323242187500e+02 -1.783298217773437500e+03 5.893745727539062500e+02 3.754802551269531250e+02
1.839148681640625000e+03 1.043935302734375000e+03 -3.455987060546875000e+03 -9.957042236328125000e+02 -2.852260742187500000e+02 -1.975525268554687500e+03 -3.259224243164062500e+02 6.591713256835937500e+02
1.499452026367187500e+03 1.599339843750000000e+03 -3.461717285156250000e+03 -1.238997802734375000e+03 -6.046522216796875000e+02 -1.950385864257812500e+03 -1.137433105468750000e+03 9.083938598632812500e+02
1.406265869140625000e+03 1.540464843750000000e+03 -3.396207519531250000e+03 -1.547519775390625000e+03 -8.150505981445312500e+02 -1.723379394531250000e+03 -1.283198974609375000e+03 8.312773437500000000e+02
1.372763916015625000e+03 9.630081176757812500e+02 -2.783156250000000000e+03 -1.676002929687500000e+03 -7.599699707031250000e+02 -1.034087402343750000e+03 -6.916307983398437500e+02 5.244345703125000000e+02
1.275363891601562500e+03 2.111369476318359375e+02 -1.650848266601562500e+03 -1.399913940429687500e+03 -8.164923706054687500e+02 -2.428547821044921875e+02 -8.815583801269531250e+01 1.319919891357421875e+02
1.095541015625000000e+03 -6.333477783203125000e+02 -5.994616088867187500e+02 -1.039129882812500000e+03 -7.644727172851562500e+02 2.420436859130859375e+02 3.849584350585937500e+02 -3.174166564941406250e+02
7.985499267578125000e+02 -1.153258300781250000e+03 1.190995971679687500e+03 -6.153883056640625000e+02 -3.573510742187500000e+02 1.050986938476562500e+03 7.345430297851562500e+02 -4.782579956054687500e+02
3.015920104980468750e+02 -9.417579956054687500e+02 3.448604248046875000e+03 -1.136024627685546875e+02 -2.035344085693359375e+02 1.994558593750000000e+03 4.857393493652343750e+02 -3.222531127929687500e+02
-3.045065917968750000e+02 -5.739734497070312500e+02 4.227513183593750000e+03 1.706571502685546875e+02 -9.130827331542968750e+01 2.343334228515625000e+03 1.736180114746093750e+01 -3.785299987792968750e+02
-7.608853759765625000e+02 -3.689689636230468750e+02 4.323315917968750000e+03 5.368221435546875000e+02 3.705470275878906250e+02 2.527578369140625000e+03 -3.653924255371093750e+02 -5.658489379882812500e+02
-1.397053710937500000e+03 5.704442596435546875e+01 4.650937988281250000e+03 9.436751708984375000e+02 6.793242187500000000e+02 2.438065429687500000e+03 -9.700940551757812500e+02 -5.368728637695312500e+02
-2.129486083984375000e+03 4.300684814453125000e+02 4.134756835937500000e+03 1.130656250000000000e+03 8.639839477539062500e+02 1.857160278320312500e+03 -1.389443359375000000e+03 -4.874549255371093750e+02
-2.275084228515625000e+03 3.265802001953125000e+02 2.844188720703125000e+03 1.133617919921875000e+03 8.581757202148437500e+02 1.112931274414062500e+03 -1.201487915039062500e+03 -6.854862670898437500e+02
-1.994694091796875000e+03 -1.365727996826171875e+02 1.206412231445312500e+03 1.089575561523437500e+03 6.841229858398437500e+02 2.795992431640625000e+02 -5.404291381835937500e+02 -1.001280578613281250e+03
-1.599378295898437500e+03 -4.753511962890625000e+02 9.767249298095703125e+01 1.240134033203125000e+03 6.919598388671875000e+02 -2.613792724609375000e+02 4.320122146606445312e+01 -1.000271179199218750e+03
-1.279420166015625000e+03 -4.183328247070312500e+02 -3.122604980468750000e+02 1.166888305664062500e+03 5.351722412109375000e+02 -5.946677246093750000e+02 3.908035583496093750e+02 -7.131832885742187500e+02
-1.174960205078125000e+03 -4.901143798828125000e+02 -1.737322753906250000e+03 6.372650146484375000e+02 2.769131774902343750e+02 -1.198743896484375000e+03 1.019296875000000000e+03 -6.178245239257812500e+02
-1.096659179687500000e+03 -8.037648925781250000e+02 -3.328090576171875000e+03 2.134367523193359375e+02 9.373593902587890625e+01 -1.708637451171875000e+03 1.781417968750000000e+03 -6.515729370117187500e+02
-1.065225097656250000e+03 -6.841427001953125000e+02 -3.304869140625000000e+03 -4.373931884765625000e+01 -2.085338439941406250e+02 -1.601285888671875000e+03 2.113865722656250000e+03 -3.867360229492187500e+02
-1.040883300781250000e+03 -5.890837478637695312e+01 -2.905575439453125000e+03 -4.488133239746093750e+02 -5.237908935546875000e+02 -1.430665893554687500e+03 1.709275512695312500e+03 1.170191650390625000e+02
-1.036823120117187500e+03 7.316648559570312500e+02 -2.738270996093750000e+03 -8.750859375000000000e+02 -8.026362304687500000e+02 -1.399801757812500000e+03 8.168483276367187500e+02 6.551066284179687500e+02
-9.384594116210937500e+02 1.291642578125000000e+03 -2.626419677734375000e+03 -1.161059082031250000e+03 -8.824383544921875000e+02 -1.176581054687500000e+03 2.574421386718750000e+02 9.466408081054687500e+02
-5.948474731445312500e+02 1.327172485351562500e+03 -2.715161621093750000e+03 -1.305407470703125000e+03 -8.066721801757812500e+02 -1.042967773437500000e+03 2.300956726074218750e+02 8.748992309570312500e+02
-3.434909973144531250e+02 1.058433105468750000e+03 -2.240794677734375000e+03 -1.196379394531250000e+03 -8.160390625000000000e+02 -8.834539794921875000e+02 2.610018005371093750e+02 7.124066162109375000e+02
-1.577526855468750000e+02 5.654031372070312500e+02 -1.473776733398437500e+03 -9.549591674804687500e+02 -6.584899291992187500e+02 -5.382346191406250000e+02 -1.313090820312500000e+02 4.273592224121093750e+02
9.201280975341796875e+01 -1.717091522216796875e+02 -1.066656127929687500e+03 -8.239112548828125000e+02 -4.313325805664062500e+02 -2.476317138671875000e+02 -6.868823242187500000e+02 1.538743019104003906e+01
2.405469360351562500e+02 -5.723128051757812500e+02 3.156008605957031250e+02 -5.178218383789062500e+02 -3.515648803710937500e+02 5.066136779785156250e+02 -7.099486694335937500e+02 -1.151748886108398438e+02
