-506.9541931152344 -158.13082885742188 382.2326354980469 
-509.156005859375 -158.56361389160156 383.0420837402344 
-511.52105712890625 -158.7729949951172 383.7738952636719 
-513.9222412109375 -158.6881561279297 384.3761901855469 
-516.26416015625 -158.273193359375 384.85101318359375 
-518.4951171875 -157.5419158935547 385.2362976074219 
-520.5869750976562 -156.56573486328125 385.5961608886719 
-522.5005493164062 -155.4652557373047 386.0151062011719 
-524.1738891601562 -154.3707275390625 386.5885314941406 
-525.5437622070312 -153.37396240234375 387.4132080078125 
-526.5721435546875 -152.50259399414062 388.5679931640625 
-527.2681274414062 -151.72805786132812 390.07965087890625 
-527.7072143554688 -151.0121612548828 391.9035339355469 
-528.0131225585938 -150.36129760742188 393.92596435546875 
-528.2849731445312 -149.8278045654297 395.9747619628906 
-528.53759765625 -149.45941162109375 397.8619384765625 
-528.7109985351562 -149.27084350585938 399.4632263183594 
-528.7161254882812 -149.2591552734375 400.7656555175781 
-528.4808349609375 -149.41204833984375 401.84014892578125 
-527.9839477539062 -149.69970703125 402.78045654296875 
-527.2698364257812 -150.0836639404297 403.6540222167969 
-526.4501953125 -150.52984619140625 404.4825134277344 
-525.6936645507812 -150.9913787841797 405.2548828125 
-525.1892700195312 -151.3898468017578 405.9807434082031 
-525.0997314453125 -151.62789916992188 406.73321533203125 
-525.5296630859375 -151.61375427246094 407.6080017089844 
-526.5062255859375 -151.2843017578125 408.6482849121094 
-527.974365234375 -150.6188507080078 409.82525634765625 
-529.8231811523438 -149.62889099121094 411.0703125 
-531.9304809570312 -148.3408660888672 412.30780029296875 
-534.1859741210938 -146.79502868652344 413.4687805175781 
-536.4925537109375 -145.0631866455078 414.4968566894531 
-538.76806640625 -143.26406860351562 415.3576354980469 
-540.9537963867188 -141.5427703857422 416.0430603027344 
-543.0097045898438 -140.0277099609375 416.5558166503906 
-544.89599609375 -138.80796813964844 416.8877258300781 
-546.5637817382812 -137.92788696289062 417.01544189453125 
-547.9519653320312 -137.37960815429688 416.91571044921875 
-548.9866333007812 -137.10726928710938 416.583740234375 
-549.5997924804688 -137.0263214111328 416.04534912109375 
-549.7698364257812 -137.0506591796875 415.34912109375 
-549.5487670898438 -137.1195831298828 414.53851318359375 
-549.05419921875 -137.2044677734375 413.6375427246094 
-548.4488525390625 -137.29043579101562 412.6652526855469 
-547.9190063476562 -137.3588104248047 411.6576843261719 
-547.644775390625 -137.3868408203125 410.6863098144531 
-547.7631225585938 -137.34854125976562 409.8573303222656 
-548.3436889648438 -137.20387268066406 409.27099609375 
-549.3859252929688 -136.89671325683594 408.9656677246094 
-550.8319702148438 -136.3726806640625 408.9120788574219 
-552.5906372070312 -135.5963897705078 409.0618896484375 
-554.5653076171875 -134.5600128173828 409.3792724609375 
-556.6781616210938 -133.2921600341797 409.8284606933594 
-558.878662109375 -131.86448669433594 410.35833740234375 
-561.1303100585938 -130.3805389404297 410.9080505371094 
-563.3843994140625 -128.95037841796875 411.4242858886719 
-565.5647583007812 -127.6771469116211 411.8742370605469 
-567.5740356445312 -126.65391540527344 412.24560546875 
-569.3115844726562 -125.95178985595703 412.5328369140625 
-570.6898193359375 -125.60027313232422 412.7282409667969 
-571.6536865234375 -125.5687484741211 412.829833984375 
-572.2078857421875 -125.7668228149414 412.8434143066406 
-572.4213256835938 -126.07638549804688 412.7739562988281 
-572.39306640625 -126.38359832763672 412.62884521484375 
-572.2217407226562 -126.58534240722656 412.4245300292969 
-571.98828125 -126.58615112304688 412.1876220703125 
-571.7499389648438 -126.30719757080078 411.95751953125 
-571.5474243164062 -125.71161651611328 411.78118896484375 
-571.4060668945312 -124.82768249511719 411.6818542480469 
-571.3397827148438 -123.7531509399414 411.6396179199219 
-571.3759155273438 -122.63663482666016 411.6210021972656 
-571.5774536132812 -121.642333984375 411.6145935058594 
-572.0257568359375 -120.91007232666016 411.6280212402344 
-572.7841186523438 -120.5241470336914 411.6580505371094 
-573.8760986328125 -120.50614166259766 411.6763000488281 
-575.2805786132812 -120.82832336425781 411.64678955078125 
-576.9396362304688 -121.4255599975586 411.5509033203125 
-578.77587890625 -122.19637298583984 411.3926086425781 
-580.7156982421875 -123.01422882080078 411.1948547363281 
-582.7095947265625 -123.76253509521484 410.99755859375 
-584.7237548828125 -124.37029266357422 410.84844970703125 
-586.7158203125 -124.82611846923828 410.7992858886719 
-588.6314697265625 -125.1631851196289 410.9039306640625 
-590.419921875 -125.42137908935547 411.20025634765625 
-592.0379638671875 -125.61019134521484 411.6912536621094 
-593.4403076171875 -125.70112609863281 412.3438415527344 
-594.5700073242188 -125.66222381591797 413.0908203125 
-595.356689453125 -125.49372863769531 413.8252258300781 
-595.7368774414062 -125.22624969482422 414.4090576171875 
-595.6771850585938 -124.9121322631836 414.71044921875 
-595.1837158203125 -124.62934875488281 414.6467590332031 
-594.3169555664062 -124.46524047851562 414.2177429199219 
-593.2078857421875 -124.47818756103516 413.50933837890625 
-592.0401000976562 -124.67371368408203 412.654052734375 
-590.99072265625 -125.00164794921875 411.7737731933594 
-590.1871948242188 -125.36354064941406 410.9533996582031 
-589.7243041992188 -125.6446762084961 410.2598571777344 
-589.6929321289062 -125.76201629638672 409.75164794921875 
-590.1647338867188 -125.67713928222656 409.4478759765625 
-591.1530151367188 -125.37286376953125 409.3258056640625 
-592.5887451171875 -124.83515167236328 409.3651428222656 
-594.3301391601562 -124.06204223632812 409.57183837890625 
-596.1970825195312 -123.0958480834961 409.9754333496094 
-598.0061645507812 -122.03889465332031 410.6266784667969 
-599.597900390625 -121.02923583984375 411.57940673828125 
-600.8565673828125 -120.2046890258789 412.8623962402344 
-601.7130737304688 -119.6712417602539 414.46875 
-602.14306640625 -119.48274230957031 416.35308837890625 
-602.1652221679688 -119.65059661865234 418.4260559082031 
-601.8109130859375 -120.16484069824219 420.5730895996094 
-601.0831298828125 -120.98819732666016 422.6886901855469 
-599.9550170898438 -122.03937530517578 424.69403076171875 
-598.4052124023438 -123.21208953857422 426.53118896484375 
-596.4517211914062 -124.4132080078125 428.1483459472656 
-594.1702880859375 -125.57630920410156 429.4986267089844 
-591.702880859375 -126.64852142333984 430.5511779785156 
-589.2421875 -127.57034301757812 431.2931213378906 
-586.9931030273438 -128.28009033203125 431.7287292480469 
-585.1273193359375 -128.7520751953125 431.8894348144531 
-583.7625122070312 -129.02471923828125 431.8373718261719 
-582.982421875 -129.18519592285156 431.6504211425781 
-582.855224609375 -129.32801818847656 431.4101257324219 
-583.4177856445312 -129.5270233154297 431.20416259765625 
-584.6544799804688 -129.82505798339844 431.1260986328125 
-586.4868774414062 -130.20884704589844 431.26348876953125 
-588.7799072265625 -130.59255981445312 431.6851501464844 
-591.368408203125 -130.86236572265625 432.4291687011719 
-594.0855102539062 -130.9451904296875 433.489990234375 
-596.773681640625 -130.8277130126953 434.8210754394531 
-599.2891845703125 -130.5216827392578 436.3564453125 
-601.5176391601562 -130.0261993408203 438.0269470214844 
-603.37548828125 -129.33042907714844 439.7436218261719 
-604.7939453125 -128.44456481933594 441.36859130859375 
-605.7246704101562 -127.41650390625 442.72601318359375 
-606.164306640625 -126.32058715820312 443.66522216796875 
-606.1575317382812 -125.23563385009766 444.12005615234375 
-605.7705078125 -124.230712890625 444.10882568359375 
-605.0564575195312 -123.35029602050781 443.6860046386719 
-604.0458374023438 -122.59780883789062 442.9073181152344 
-602.7680053710938 -121.94145202636719 441.8353271484375 
-601.2725219726562 -121.3355941772461 440.5527038574219 
-599.6234741210938 -120.73625183105469 439.1571044921875 
-597.8807373046875 -120.11371612548828 437.7359924316406 
-596.0996704101562 -119.46208953857422 436.34136962890625 
-594.3504638671875 -118.79951477050781 435.0035400390625 
-592.727294921875 -118.16031646728516 433.764892578125 
-591.3294067382812 -117.58152770996094 432.6778259277344 
-590.232421875 -117.09799194335938 431.78515625 
-589.4830322265625 -116.7431640625 431.1242370605469 
-589.115966796875 -116.53315734863281 430.7321472167969 
-589.15478515625 -116.45783996582031 430.6288757324219 
-589.5878295898438 -116.50581359863281 430.7987060546875 
-590.3622436523438 -116.68217468261719 431.18670654296875 
-591.404052734375 -116.99031829833984 431.7190856933594 
-592.6256103515625 -117.41519927978516 432.33453369140625 
-593.9117431640625 -117.93670654296875 432.99267578125 
-595.1180419921875 -118.5503921508789 433.6526794433594 
-596.1033935546875 -119.26602172851562 434.2500915527344 
-596.7742919921875 -120.08233642578125 434.7070617675781 
-597.0977172851562 -120.9649429321289 434.9584655761719 
-597.0702514648438 -121.85565185546875 434.9605712890625 
-596.6832275390625 -122.70616149902344 434.6924133300781 
-595.9387817382812 -123.50365447998047 434.1669616699219 
-594.9044189453125 -124.27015686035156 433.45074462890625 
-593.7293090820312 -125.04216766357422 432.6717529296875 
-592.5952758789062 -125.85017395019531 431.99237060546875 
-591.6602783203125 -126.71324920654297 431.5571594238281 
-591.0452270507812 -127.63898468017578 431.4559631347656 
-590.8284912109375 -128.62530517578125 431.71697998046875 
-591.0159912109375 -129.6770477294922 432.3210754394531 
-591.5332641601562 -130.8126220703125 433.22344970703125 
-592.2747802734375 -132.042236328125 434.3561706542969 
-593.1663208007812 -133.3588104248047 435.61962890625 
-594.177490234375 -134.7543182373047 436.90008544921875 
-595.2968139648438 -136.2229461669922 438.093994140625 
-596.5087280273438 -137.7568817138672 439.1029968261719 
-597.7799682617188 -139.36727905273438 439.8204345703125 
-599.0549926757812 -141.100341796875 440.1376647949219 
-600.2695922851562 -143.01686096191406 439.97247314453125 
-601.3770751953125 -145.16693115234375 439.3025817871094 
-602.3526000976562 -147.57923889160156 438.1808776855469 
-603.17236328125 -150.2540283203125 436.7195739746094 
-603.8042602539062 -153.1698760986328 435.0417785644531 
-604.2132568359375 -156.28854370117188 433.2233581542969 
-604.3534545898438 -159.53414916992188 431.2629089355469 
-604.175537109375 -162.77789306640625 429.1097412109375 
-603.6715087890625 -165.85836791992188 426.7393493652344 
-602.8924560546875 -168.62942504882812 424.2034912109375 
-601.916015625 -171.00833129882812 421.6084899902344 
-600.8129272460938 -172.97718811035156 419.0811767578125 
-599.6392211914062 -174.5345916748047 416.76239013671875 
-598.4379272460938 -175.6627960205078 414.78863525390625 
-597.2354736328125 -176.32875061035156 413.24847412109375 
-596.0542602539062 -176.487548828125 412.1539001464844 
-594.9484252929688 -176.09384155273438 411.45452880859375 
-594.03125 -175.1253204345703 411.0830383300781 
-593.46142578125 -173.5931396484375 410.9833679199219 
-593.3841552734375 -171.5350799560547 411.1066589355469 
-593.86181640625 -169.01141357421875 411.40887451171875 
-594.8412475585938 -166.11412048339844 411.8562927246094 
-596.1685180664062 -162.97610473632812 412.418701171875 
-597.6366577148438 -159.76075744628906 413.0618591308594 
-599.0487670898438 -156.6424102783203 413.7453918457031 
-600.262451171875 -153.79124450683594 414.4161682128906 
-601.1795043945312 -151.35333251953125 415.0016784667969 
-601.7013549804688 -149.4295654296875 415.40972900390625 
-601.72314453125 -148.0562744140625 415.5269775390625 
-601.1710815429688 -147.19000244140625 415.2252197265625 
-600.0181884765625 -146.72613525390625 414.39593505859375 
-598.2688598632812 -146.53924560546875 412.9829406738281 
-595.9453735351562 -146.49310302734375 410.97869873046875 
-593.0885009765625 -146.4275665283203 408.4154052734375 
-589.7739868164062 -146.17164611816406 405.35693359375 
-586.1424560546875 -145.59376525878906 401.8876647949219 
-582.4140014648438 -144.64161682128906 398.12353515625 
-578.8570556640625 -143.32713317871094 394.22760009765625 
-575.7235717773438 -141.6883544921875 390.399658203125 
-573.200927734375 -139.78115844726562 386.8538513183594 
-571.4136352539062 -137.69827270507812 383.7931823730469 
-570.4494018554688 -135.5929718017578 381.3782958984375 
-570.3643798828125 -133.67527770996094 379.708740234375 
-571.1742553710938 -132.16424560546875 378.8268127441406 
-572.85400390625 -131.23818969726562 378.7131042480469 
-575.3303833007812 -131.00506591796875 379.27825927734375 
-578.4533081054688 -131.4791259765625 380.3868408203125 
-581.9713134765625 -132.5816192626953 381.8877258300781 
-585.55859375 -134.17539978027344 383.6180725097656 
-588.8897705078125 -136.1039276123047 385.40899658203125 
-591.7095336914062 -138.20799255371094 387.107421875 
-593.8516235351562 -140.32521057128906 388.593505859375 
-595.2174682617188 -142.30352783203125 389.7840576171875 
-595.7573852539062 -144.04116821289062 390.6365966796875 
-595.4742431640625 -145.51095581054688 391.14971923828125 
-594.4315795898438 -146.72767639160156 391.3525390625 
-592.7418212890625 -147.69247436523438 391.2937316894531 
-590.5296630859375 -148.3766326904297 391.02642822265625 
-587.9093017578125 -148.7453155517578 390.5902099609375 
-585.001953125 -148.78269958496094 390.0118713378906 
-581.9580078125 -148.49620056152344 389.32049560546875 
-578.9514770507812 -147.90878295898438 388.552001953125 
-576.1637573242188 -147.06092834472656 387.7535095214844 
-573.7657470703125 -146.0076904296875 386.9847717285156 
-571.8985595703125 -144.7938232421875 386.2957458496094 
-570.6438598632812 -143.44435119628906 385.7108154296875 
-569.9883422851562 -141.99371337890625 385.2416076660156 
-569.830078125 -140.5081024169922 384.8915100097656 
-570.0548706054688 -139.07606506347656 384.6471862792969 
-570.6046142578125 -137.7992706298828 384.4883117675781 
-571.4593505859375 -136.7863006591797 384.40728759765625 
-572.565673828125 -136.1165771484375 384.4010314941406 
-573.7935180664062 -135.78965759277344 384.4472961425781 
-574.9569091796875 -135.70533752441406 384.4984130859375 
-575.8789672851562 -135.6962432861328 384.48834228515625 
-576.4313354492188 -135.60739135742188 384.3426818847656 
-576.517822265625 -135.36598205566406 383.99188232421875 
-576.058349609375 -134.9732208251953 383.3919982910156 
-575.0015258789062 -134.44573974609375 382.54791259765625 
-573.3395385742188 -133.78363037109375 381.5080261230469 
-571.1202392578125 -132.9793701171875 380.3341369628906 
-568.4464111328125 -132.03436279296875 379.08245849609375 
-565.4536743164062 -130.96368408203125 377.7960510253906 
-562.297607421875 -129.79408264160156 376.507080078125 
-559.1629028320312 -128.5640411376953 375.2571716308594 
-556.260009765625 -127.3274154663086 374.1086730957031 
-553.7860107421875 -126.14652252197266 373.1363830566406 
-551.8767700195312 -125.0676498413086 372.4209289550781 
-550.5752563476562 -124.10408782958984 372.0423583984375 
-549.8311767578125 -123.24559020996094 372.071533203125 
-549.5430297851562 -122.47547149658203 372.5638427734375 
-549.6109008789062 -121.77896881103516 373.5378723144531 
-549.9507446289062 -121.14549255371094 374.94647216796875 
-550.4783325195312 -120.57260131835938 376.6843566894531 
-551.1079711914062 -120.0786361694336 378.64764404296875 
-551.769287109375 -119.710693359375 380.7912902832031 
-552.4136352539062 -119.52684020996094 383.1258850097656 
-553.0062255859375 -119.57355499267578 385.6691589355469 
-553.5184936523438 -119.8805923461914 388.399169921875 
-553.915771484375 -120.45854949951172 391.2374267578125 
-554.1456298828125 -121.30564880371094 394.0652160644531 
-554.1441650390625 -122.43306732177734 396.7484436035156 
-553.8544311523438 -123.87385559082031 399.1635437011719 
-553.229248046875 -125.65612030029297 401.2240905761719 
-552.21923828125 -127.7735824584961 402.89068603515625 
-550.7594604492188 -130.18333435058594 404.1641845703125 
-548.7681884765625 -132.81260681152344 405.0636901855469 
-546.1826782226562 -135.5568389892578 405.59326171875 
-543.016357421875 -138.29042053222656 405.7328796386719 
-539.3771362304688 -140.8865966796875 405.46746826171875 
-535.4326782226562 -143.2209014892578 404.8251647949219 
-531.365966796875 -145.1693572998047 403.89910888671875 
-527.3538208007812 -146.61337280273438 402.8361511230469 
-523.5679931640625 -147.44699096679688 401.777099609375 
-520.1788940429688 -147.59593200683594 400.79803466796875 
-517.3521118164062 -147.0532989501953 399.9200439453125 
-515.235107421875 -145.90676879882812 399.1529541015625 
-513.929443359375 -144.32777404785156 398.514404296875 
-513.4588012695312 -142.52951049804688 398.0244140625 
-513.7530517578125 -140.72378540039062 397.6902160644531 
-514.6614990234375 -139.0869903564453 397.5007019042969 
-515.9888916015625 -137.72889709472656 397.44970703125 
-517.5294189453125 -136.67921447753906 397.5570983886719 
-519.0783081054688 -135.91026306152344 397.85906982421875 
-520.424560546875 -135.38050842285156 398.3858947753906 
-521.3626708984375 -135.0694580078125 399.1443176269531 
-521.7360229492188 -134.99073791503906 400.1052551269531 
-521.46240234375 -135.17909240722656 401.1995849609375 
-520.5232543945312 -135.65440368652344 402.3232421875 
-518.9532470703125 -136.38568115234375 403.36346435546875 
-516.8402709960938 -137.28115844726562 404.229248046875 
-514.3200073242188 -138.21029663085938 404.8518981933594 
-511.5518798828125 -139.0428466796875 405.1658020019531 
-508.6854553222656 -139.67864990234375 405.10394287109375 
-505.84613037109375 -140.05526733398438 404.6238708496094 
-503.1470031738281 -140.1411895751953 403.7439880371094 
-500.6934509277344 -139.92369079589844 402.5509033203125 
-498.56854248046875 -139.3978729248047 401.1722106933594 
-496.83123779296875 -138.5622100830078 399.74908447265625 
-495.53033447265625 -137.42742919921875 398.4313659667969 
-494.7095031738281 -136.0390625 397.372314453125 
-494.40313720703125 -134.4868621826172 396.70513916015625 
-494.6311950683594 -132.8799285888672 396.52410888671875 
-495.3843688964844 -131.3066864013672 396.8713073730469 
-496.59637451171875 -129.8095703125 397.7153625488281 
-498.13525390625 -128.3950653076172 398.950927734375 
-499.8382263183594 -127.06221771240234 400.43048095703125 
-501.5509948730469 -125.81226348876953 401.9999084472656 
-503.1263732910156 -124.63948822021484 403.5265808105469 
-504.4096374511719 -123.52389526367188 404.90203857421875 
-505.2518615722656 -122.44392395019531 406.013427734375 
-505.5289611816406 -121.39691162109375 406.72906494140625 
-505.1385803222656 -120.38370513916016 406.9337158203125 
-504.0040283203125 -119.3689193725586 406.5768737792969 
-502.104248046875 -118.27037811279297 405.67987060546875 
-499.4906005859375 -116.99407958984375 404.304443359375 
-496.27447509765625 -115.48236846923828 402.52618408203125 
-492.61114501953125 -113.7263412475586 400.4300537109375 
-488.6910095214844 -111.74040222167969 398.1042785644531 
-484.739990234375 -109.54804992675781 395.6259460449219 
-481.0187683105469 -107.19783020019531 393.07049560546875 
-477.789306640625 -104.76944732666016 390.544921875 
-475.262939453125 -102.35726928710938 388.19842529296875 
-473.57781982421875 -100.06478118896484 386.18182373046875 
-472.7958679199219 -97.9945068359375 384.58941650390625 
-472.8908386230469 -96.21985626220703 383.4432067871094 
-473.7469787597656 -94.78385162353516 382.7130432128906 
-475.1886901855469 -93.71521759033203 382.33050537109375 
-477.02081298828125 -93.02009582519531 382.2029724121094 
-479.05718994140625 -92.66851043701172 382.2391357421875 
-481.12640380859375 -92.59629821777344 382.3653869628906 
-483.0517272949219 -92.71941375732422 382.5230407714844 
-484.6423034667969 -92.95840454101562 382.65374755859375 
-485.72637939453125 -93.26273345947266 382.6980895996094 
-486.1775207519531 -93.6160659790039 382.616455078125 
-485.9088134765625 -94.02276611328125 382.3952331542969 
-484.8714599609375 -94.49124145507812 382.017822265625 
-483.06292724609375 -95.01126861572266 381.4441223144531 
-480.5283508300781 -95.53530883789062 380.6253356933594 
-477.3644714355469 -95.99642944335938 379.5230407714844 
-473.73309326171875 -96.35029602050781 378.1183166503906 
-469.8619384765625 -96.59291076660156 376.4316101074219 
-466.0107116699219 -96.73380279541016 374.5390930175781 
-462.413330078125 -96.74870300292969 372.5591735839844 
-459.2354736328125 -96.56278991699219 370.6366271972656 
-456.577880859375 -96.09693908691406 368.93408203125 
-454.5069885253906 -95.3401107788086 367.6011962890625 
-453.0610046386719 -94.36808013916016 366.7349853515625 
-452.2301330566406 -93.28477478027344 366.3679504394531 
-451.9521179199219 -92.1551513671875 366.471923828125 
-452.12530517578125 -91.00096893310547 366.95062255859375 
-452.6169128417969 -89.84341430664062 367.6353759765625 
-453.27130126953125 -88.73435974121094 368.3118896484375 
-453.93310546875 -87.75550079345703 368.77044677734375 
-454.4751892089844 -87.00074768066406 368.8514709472656 
-454.7998352050781 -86.5596694946289 368.4675598144531 
-454.81072998046875 -86.50817108154297 367.60821533203125 
-454.3946228027344 -86.89750671386719 366.3343200683594 
-453.4368591308594 -87.72367095947266 364.7531433105469 
-451.8609313964844 -88.90771484375 362.9786682128906 
-449.670166015625 -90.33344268798828 361.0996398925781 
-446.9609375 -91.88790130615234 359.1762390136719 
-443.89312744140625 -93.45526885986328 357.2572326660156 
-440.648193359375 -94.91954803466797 355.3811340332031 
-437.4054870605469 -96.19715881347656 353.55413818359375 
-434.32501220703125 -97.25762176513672 351.7314453125 
-431.5376892089844 -98.10928344726562 349.82989501953125 
-429.1585388183594 -98.7584228515625 347.7750244140625 
-427.2963562011719 -99.18323516845703 345.5464172363281 
-426.0311279296875 -99.35371398925781 343.1853332519531 
-425.3895263671875 -99.26653289794922 340.7764587402344 
-425.3473205566406 -98.95562744140625 338.4280090332031 
-425.837890625 -98.48054504394531 336.24530029296875 
-426.7547302246094 -97.90789794921875 334.3005065917969 
-427.9614562988281 -97.3052978515625 332.624267578125 
-429.3158874511719 -96.75106811523438 331.22210693359375 
-430.6922302246094 -96.33293914794922 330.0944519042969 
-431.9909362792969 -96.12615966796875 329.2415466308594 
-433.1235656738281 -96.17024993896484 328.6450500488281 
-433.97772216796875 -96.46322631835938 328.2469177246094 
-434.4166259765625 -96.9740219116211 327.9579772949219 
-434.32159423828125 -97.64962768554688 327.6990966796875 
-433.6230163574219 -98.40199279785156 327.4303894042969 
-432.3173522949219 -99.10786437988281 327.125732421875 
-430.47357177734375 -99.64752197265625 326.7171630859375 
-428.19305419921875 -99.94906616210938 326.0762634277344 
-425.5610656738281 -99.99186706542969 325.0697937011719 
-422.66680908203125 -99.76885223388672 323.64385986328125 
-419.65216064453125 -99.26171875 321.856689453125 
-416.709228515625 -98.46111297607422 319.8492736816406 
-414.0298767089844 -97.38829040527344 317.7983703613281 
-411.75299072265625 -96.09049987792969 315.8792419433594 
-409.94757080078125 -94.63259887695312 314.243408203125 
-408.6336364746094 -93.09026336669922 313.00299072265625 
-407.8058166503906 -91.54212188720703 312.2110290527344 
-407.4334716796875 -90.06243133544922 311.8417663574219 
-407.4430236816406 -88.71317291259766 311.797607421875 
-407.7091064453125 -87.54952239990234 311.9483337402344 
-408.06463623046875 -86.63038635253906 312.17108154296875 
-408.31890869140625 -86.00486755371094 312.37860107421875 
-408.28717041015625 -85.69291687011719 312.5208435058594 
-407.8320617675781 -85.69340515136719 312.5633239746094 
-406.88555908203125 -86.0067367553711 312.4922790527344 
-405.437255859375 -86.6411361694336 312.3384704589844 
-403.5186462402344 -87.60100555419922 312.17486572265625 
-401.20257568359375 -88.88147735595703 312.08966064453125 
-398.6004943847656 -90.47818756103516 312.1504821777344 
-395.8428039550781 -92.39948272705078 312.36712646484375 
-393.0495910644531 -94.65851593017578 312.6767578125 
-390.31866455078125 -97.23280334472656 312.9709777832031 
-387.7406311035156 -100.02216339111328 313.1442565917969 
-385.40814208984375 -102.85702514648438 313.1138610839844 
-383.3959655761719 -105.55187225341797 312.8164367675781 
-381.72796630859375 -107.95033264160156 312.229736328125 
-380.37115478515625 -109.94180297851562 311.3927917480469 
-379.2686462402344 -111.4619369506836 310.3812561035156 
-378.37701416015625 -112.49017333984375 309.2687072753906 
-377.6807861328125 -113.04718017578125 308.1095275878906 
-377.1921691894531 -113.166748046875 306.9221496582031 
-376.9385986328125 -112.85283660888672 305.65411376953125 
-376.9385681152344 -112.0847396850586 304.17633056640625 
-377.1773376464844 -110.86402130126953 302.3516540527344 
-377.5942077636719 -109.240966796875 300.1318664550781 
-378.0941162109375 -107.31341552734375 297.5919494628906 
-378.57080078125 -105.21669006347656 294.8877868652344 
-378.92205810546875 -103.10479736328125 292.2082824707031 
-379.0577392578125 -101.11968231201172 289.743896484375 
-378.9078674316406 -99.3583755493164 287.6396484375 
-378.4303894042969 -97.8592758178711 285.9498596191406 
-377.60760498046875 -96.61302947998047 284.6393737792969 
-376.42974853515625 -95.58490753173828 283.62066650390625 
-374.8907165527344 -94.73197174072266 282.77166748046875 
-373.0117492675781 -94.00350189208984 281.9349670410156 
-370.8544616699219 -93.34014892578125 280.94921875 
-368.49676513671875 -92.68929290771484 279.7061767578125 
-366.0065612792969 -92.02216339111328 278.17718505859375 
-363.4422607421875 -91.33011627197266 276.39141845703125 
-360.8713684082031 -90.60626983642578 274.41082763671875 
-358.3862609863281 -89.83399200439453 272.3272705078125 
-356.08660888671875 -88.98932647705078 270.2530822753906 
-354.0304870605469 -88.05096435546875 268.2897644042969 
-352.2160339355469 -87.00325012207031 266.5128173828125 
-350.6182556152344 -85.83426666259766 264.9975280761719 
-349.23162841796875 -84.54554748535156 263.8387145996094 
-348.0771484375 -83.16191864013672 263.11163330078125 
-347.18243408203125 -81.72532653808594 262.8203430175781 
-346.5650329589844 -80.2851791381836 262.90673828125 
-346.23358154296875 -78.90149688720703 263.29620361328125 
-346.18389892578125 -77.64459228515625 263.9144592285156 
-346.3692932128906 -76.5660629272461 264.68115234375 
-346.66815185546875 -75.67093658447266 265.50408935546875 
-346.89508056640625 -74.93001556396484 266.26129150390625 
-346.86376953125 -74.315185546875 266.7909851074219 
-346.45172119140625 -73.82652282714844 266.94329833984375 
-345.6117248535156 -73.49778747558594 266.6568298339844 
-344.33526611328125 -73.37818145751953 265.9688415527344 
-342.6214294433594 -73.50993347167969 264.95330810546875 
-340.4744567871094 -73.91806030273438 263.6653747558594 
-337.9197998046875 -74.61234283447266 262.1524353027344 
-335.0225524902344 -75.58961486816406 260.49273681640625 
-331.8910827636719 -76.8133544921875 258.78509521484375 
-328.6526794433594 -78.1977310180664 257.09381103515625 
-325.4249572753906 -79.64395141601562 255.42135620117188 
-322.3194885253906 -81.09696960449219 253.74325561523438 
-319.4650573730469 -82.55792236328125 252.0583953857422 
-317.009521484375 -84.04676818847656 250.39674377441406 
-315.0896911621094 -85.55874633789062 248.7869415283203 
-313.7894592285156 -87.04479217529297 247.23196411132812 
-313.1170349121094 -88.41939544677734 245.72305297851562 
-313.02374267578125 -89.59492492675781 244.26528930664062 
-313.44024658203125 -90.51575469970703 242.8814697265625 
-314.2893371582031 -91.16524505615234 241.60023498535156 
-315.4804382324219 -91.55901336669922 240.44192504882812 
-316.9048767089844 -91.74200439453125 239.40530395507812 
-318.4327697753906 -91.7808609008789 238.4650115966797 
-319.90802001953125 -91.7437515258789 237.5869903564453 
-321.1531677246094 -91.68419647216797 236.75210571289062 
-321.9914855957031 -91.6397933959961 235.95709228515625 
-322.27899169921875 -91.63200378417969 235.18865966796875 
-321.9251403808594 -91.65913391113281 234.4134979248047 
-320.88775634765625 -91.69437408447266 233.59869384765625 
-319.1582946777344 -91.70093536376953 232.73074340820312 
-316.7608642578125 -91.6527328491211 231.81414794921875 
-313.75762939453125 -91.54255676269531 230.8640899658203 
-310.24908447265625 -91.38077545166016 229.90301513671875 
-306.375 -91.19239044189453 228.9742889404297 
-302.3148498535156 -91.01030731201172 228.15675354003906 
-298.2693176269531 -90.85979461669922 227.53131103515625 
-294.4312744140625 -90.74087524414062 227.12281799316406 
-290.9696960449219 -90.62794494628906 226.89166259765625 
-288.0158386230469 -90.49560546875 226.78277587890625 
-285.6411437988281 -90.33524322509766 226.77279663085938 
-283.8521728515625 -90.13442993164062 226.8687744140625 
-282.6165466308594 -89.85562896728516 227.0692596435547 
-281.8959655761719 -89.44215393066406 227.33401489257812 
-281.6611633300781 -88.83553314208984 227.59739685058594 
-281.8828430175781 -87.98772430419922 227.814453125 
-282.500244140625 -86.8635482788086 227.9896240234375 
-283.3963623046875 -85.45191955566406 228.1549835205078 
-284.40570068359375 -83.80128479003906 228.31402587890625 
-285.3370056152344 -82.03832244873047 228.40676879882812 
-285.9970397949219 -80.32298278808594 228.333251953125 
-286.2156066894531 -78.77334594726562 228.0110321044922 
-285.8582458496094 -77.43041229248047 227.41331481933594 
-284.83209228515625 -76.27667236328125 226.5596923828125 
-283.0948181152344 -75.26908874511719 225.47666931152344 
-280.6599426269531 -74.36151885986328 224.16297912597656 
-277.59637451171875 -73.52630615234375 222.57916259765625 
-274.0250244140625 -72.7674789428711 220.6766357421875 
-270.103515625 -72.10110473632812 218.45004272460938 
-265.99658203125 -71.53290557861328 215.96266174316406 
-261.85980224609375 -71.0623550415039 213.32662963867188 
-257.8535461425781 -70.67811584472656 210.65919494628906 
-254.16603088378906 -70.33872985839844 208.05531311035156 
-251.0093994140625 -69.97576904296875 205.59703063964844 
-248.58145141601562 -69.51343536376953 203.36172485351562 
-247.02464294433594 -68.89297485351562 201.40347290039062 
-246.4107208251953 -68.10818481445312 199.7458953857422 
-246.7371826171875 -67.21208953857422 198.39352416992188 
-247.9166259765625 -66.28062438964844 197.3348846435547 
-249.77574157714844 -65.37776184082031 196.5487060546875 
-252.08447265625 -64.5340805053711 196.00924682617188 
-254.58859252929688 -63.738887786865234 195.65869140625 
-257.03387451171875 -62.953983306884766 195.3714599609375 
-259.2093505859375 -62.13935089111328 194.97705078125 
-260.9939270019531 -61.276283264160156 194.33546447753906 
-262.356689453125 -60.365074157714844 193.38905334472656 
-263.3027648925781 -59.394081115722656 192.15264892578125 
-263.81915283203125 -58.32122039794922 190.67547607421875 
-263.871337890625 -57.09251403808594 189.0093231201172 
-263.4268493652344 -55.668434143066406 187.1815643310547 
-262.4652404785156 -54.032466888427734 185.18988037109375 
-260.97821044921875 -52.186580657958984 183.0292205810547 
-258.9803466796875 -50.13555908203125 180.7106170654297 
-256.5252990722656 -47.87336730957031 178.2636260986328 
-253.7039031982422 -45.39466094970703 175.74229431152344 
-250.6132354736328 -42.7216911315918 173.22967529296875 
-247.3326416015625 -39.9236946105957 170.83612060546875 
-243.9352569580078 -37.11603546142578 168.6754913330078 
-240.51182556152344 -34.437110900878906 166.83119201660156 
-237.1815643310547 -32.02540969848633 165.3640594482422 
-234.08413696289062 -30.006942749023438 164.3511199951172 
-231.3576202392578 -28.4847412109375 163.89889526367188 
-229.11123657226562 -27.524229049682617 164.1181640625 
-227.39544677734375 -27.10831642150879 165.07559204101562 
-226.1732635498047 -27.093639373779297 166.7519073486328 
-225.31553649902344 -27.243989944458008 169.0298614501953 
-224.64869689941406 -27.30707359313965 171.701416015625 
-224.030517578125 -27.05818748474121 174.47950744628906 
-223.3906707763672 -26.318613052368164 177.013671875 
-222.72689819335938 -24.982255935668945 178.9127655029297 
-222.08151245117188 -23.03879737854004 179.78994750976562 
-221.4974365234375 -20.562273025512695 179.3306884765625 
-220.97055053710938 -17.669092178344727 177.34527587890625 
-220.43368530273438 -14.481749534606934 173.7782440185547 
-219.77105712890625 -11.13337230682373 168.6927032470703 
-218.85220336914062 -7.801606178283691 162.2578887939453 
-217.5684356689453 -4.708433151245117 154.74835205078125 
-215.85708618164062 -2.0673861503601074 146.52830505371094 
-213.71055603027344 -0.03340097889304161 138.00274658203125 
-211.17718505859375 1.3062944412231445 129.5716552734375 
-208.3594207763672 1.9211571216583252 121.6182632446289 
-205.39451599121094 1.841893196105957 114.49187469482422 
-202.4283905029297 1.1709455251693726 108.458740234375 
-199.61668395996094 0.05407165735960007 103.66644287109375 
-197.1307373046875 -1.3823176622390747 100.15483093261719 
-195.12551879882812 -3.066479444503784 97.89314270019531 
-193.70083618164062 -4.97296667098999 96.80538940429688 
-192.88597106933594 -7.103852272033691 96.76419067382812 
-192.6374053955078 -9.45876407623291 97.57935333251953 
-192.85546875 -11.996530532836914 99.02191162109375 
-193.41506958007812 -14.631272315979004 100.88335418701172 
-194.1852264404297 -17.26795768737793 103.03047180175781 
-195.03248596191406 -19.829296112060547 105.40677642822266 
-195.81106567382812 -22.25579833984375 107.98542022705078 
-196.34844970703125 -24.503095626831055 110.73655700683594 
-196.47189331054688 -26.53730010986328 113.63262939453125 
-196.0714569091797 -28.32619285583496 116.6584701538086 
-195.12847900390625 -29.851829528808594 119.79856872558594 
-193.70347595214844 -31.131614685058594 123.00300598144531 
-191.92724609375 -32.212493896484375 126.16827392578125 
-189.98521423339844 -33.143619537353516 129.1637420654297 
-188.07229614257812 -33.952064514160156 131.86825561523438 
-186.340087890625 -34.63141632080078 134.17697143554688 
-184.8601531982422 -35.145442962646484 135.99853515625 
-183.6102752685547 -35.45426940917969 137.27703857421875 
-182.49270629882812 -35.5455207824707 138.04429626464844 
-181.37356567382812 -35.43626022338867 138.44915771484375 
-180.11141967773438 -35.15061569213867 138.70335388183594 
-178.5770721435547 -34.70586395263672 138.98814392089844 
-176.6830291748047 -34.11767578125 139.4088592529297 
-174.391845703125 -33.404354095458984 140.0078125 
-171.7013702392578 -32.57040023803711 140.79022216796875 
-168.63868713378906 -31.593034744262695 141.73663330078125 
-165.2634735107422 -30.438018798828125 142.8020782470703 
-161.6641082763672 -29.077045440673828 143.9100799560547 
-157.93983459472656 -27.493865966796875 144.94703674316406 
-154.1902618408203 -25.705411911010742 145.77578735351562 
-150.52467346191406 -23.783578872680664 146.27871704101562 
-147.0601348876953 -21.836597442626953 146.38671875 
-143.8982696533203 -19.955516815185547 146.06881713867188 
-141.1175994873047 -18.181453704833984 145.30958557128906 
-138.7875518798828 -16.529022216796875 144.09864807128906 
-136.9716339111328 -15.027058601379395 142.437255859375 
-135.7000732421875 -13.725732803344727 140.3522186279297 
-134.9331512451172 -12.67738151550293 137.895751953125 
-134.56182861328125 -11.917226791381836 135.13235473632812 
-134.44650268554688 -11.451796531677246 132.14950561523438 
-134.46438598632812 -11.25965404510498 129.09213256835938 
-134.5474853515625 -11.309332847595215 126.16415405273438 
-134.68960571289062 -11.581109046936035 123.57369995117188 
-134.9207000732422 -12.065935134887695 121.4638900756836 
-135.26663208007812 -12.74166202545166 119.86780548095703 
-135.71104431152344 -13.55008602142334 118.70662689208984 
-136.18316650390625 -14.387312889099121 117.84223175048828 
-136.5841827392578 -15.11807918548584 117.14726257324219 
-136.81393432617188 -15.615445137023926 116.5379409790039 
-136.78175354003906 -15.79655647277832 115.9624252319336 
-136.4134979248047 -15.62545394897461 115.36918640136719 
-135.65293884277344 -15.094404220581055 114.68734741210938 
-134.46450805664062 -14.218050956726074 113.83323669433594 
-132.83535766601562 -13.04593276977539 112.72109985351562 
-130.77001953125 -11.669550895690918 111.27080535888672 
-128.2947998046875 -10.207989692687988 109.43919372558594 
-125.4737548828125 -8.783723831176758 107.26229858398438 
-122.40255737304688 -7.511776447296143 104.86325073242188 
-119.1909408569336 -6.495878219604492 102.42955017089844 
-115.95913696289062 -5.809573173522949 100.17201232910156 
-112.82971954345703 -5.470754146575928 98.26386260986328 
-109.92347717285156 -5.430755615234375 96.80780029296875 
-107.37699890136719 -5.57785701751709 95.86471557617188 
-105.3428955078125 -5.744120121002197 95.47891235351562 
-103.95987701416016 -5.718310832977295 95.65776824951172 
-103.31682586669922 -5.276249885559082 96.35726928710938 
-103.42268371582031 -4.2244391441345215 97.4884262084961 
-104.19815063476562 -2.4370932579040527 98.91265106201172 
-105.48206329345703 0.12101352959871292 100.44176483154297 
-107.03250122070312 3.382770538330078 101.86697387695312 
-108.5527114868164 7.185099124908447 103.000244140625 
-109.76077270507812 11.293984413146973 103.68629455566406 
-110.44769287109375 15.423007011413574 103.77327728271484 
-110.48146057128906 19.23227310180664 103.11286163330078 
-109.7730712890625 22.32684898376465 101.6325454711914 
-108.25227355957031 24.273012161254883 99.39191436767578 
-105.89786529541016 24.663860321044922 96.54678344726562 
-102.79972839355469 23.256542205810547 93.2889633178711 
-99.18710327148438 20.09102439880371 89.83676147460938 
-95.39647674560547 15.482170104980469 86.43778228759766 
-91.8049545288086 9.93138599395752 83.33577728271484 
-88.78260803222656 4.063445091247559 80.72300720214844 
-86.6617660522461 -1.4046251773834229 78.71660614013672 
-85.68553924560547 -5.728625774383545 77.35668182373047 
-85.9510269165039 -8.267667770385742 76.60794830322266 
-87.36675262451172 -8.62833023071289 76.36418151855469 
-89.63357543945312 -6.736485004425049 76.46363830566406 
-92.2745132446289 -2.8145153522491455 76.72068786621094 
-94.7249526977539 2.6869521141052246 76.94575500488281 
-96.44966888427734 9.17535400390625 76.94042205810547 
-97.04227447509766 16.017398834228516 76.52175903320312 
-96.29244995117188 22.621492385864258 75.58834838867188 
-94.20568084716797 28.486745834350586 74.16114807128906 
-90.96465301513672 33.24772262573242 72.36177825927734 
-86.85548400878906 36.71247863769531 70.35623931884766 
-82.20370483398438 38.86058044433594 68.30313873291016 
-77.33736419677734 39.80321502685547 66.32674407958984 
-72.54239654541016 39.729225158691406 64.51879119873047 
-68.02252960205078 38.85054016113281 62.94773483276367 
-63.91618728637695 37.36465835571289 61.65804672241211 
-60.342132568359375 35.4415283203125 60.67380905151367 
-57.40449523925781 33.215301513671875 60.012882232666016 
-55.16859436035156 30.777429580688477 59.697147369384766 
-53.65742111206055 28.183359146118164 59.74469757080078 
-52.85601043701172 25.459766387939453 60.14908981323242 
-52.69620895385742 22.606536865234375 60.879093170166016 
-53.0552978515625 19.611106872558594 61.903907775878906 
-53.79615783691406 16.473209381103516 63.199466705322266 
-54.80217361450195 13.223014831542969 64.72217559814453 
-55.969261169433594 9.926857948303223 66.38712310791016 
-57.18239974975586 6.685285568237305 68.07781982421875 
-58.30841827392578 3.618283987045288 69.68565368652344 
-59.20819091796875 0.8352462649345398 71.14505004882812 
-59.765560150146484 -1.5923762321472168 72.42705535888672 
-59.91041564941406 -3.642247200012207 73.50382232666016 
-59.610931396484375 -5.332251071929932 74.31925201416016 
-58.85878372192383 -6.689927577972412 74.78020477294922 
-57.671112060546875 -7.714484691619873 74.77597045898438 
-56.0945930480957 -8.353109359741211 74.22061920166016 
-54.20793533325195 -8.504443168640137 73.08052825927734 
-52.11811065673828 -8.05424690246582 71.36856079101562 
-49.94929885864258 -6.927934646606445 69.14669799804688 
-47.833412170410156 -5.1219162940979 66.55278778076172 
-45.880088806152344 -2.6940786838531494 63.79706573486328 
-44.131351470947266 0.2700997292995453 61.114601135253906 
-42.557151794433594 3.6763463020324707 58.714500427246094 
-41.10197067260742 7.402998447418213 56.74349594116211 
-39.73261260986328 11.281625747680664 55.27407455444336 
-38.456180572509766 15.111674308776855 54.31372833251953 
-37.31196594238281 18.689861297607422 53.813751220703125 
-36.34159851074219 21.836238861083984 53.69303894042969 
-35.54560470581055 24.416271209716797 53.87690353393555 
-34.85837936401367 26.344266891479492 54.300601959228516 
-34.16307830810547 27.58069610595703 54.87565612792969 
-33.329124450683594 28.15195655822754 55.47303771972656 
-32.24674987792969 28.164165496826172 55.937591552734375 
-30.846073150634766 27.776586532592773 56.103328704833984 
-29.100488662719727 27.15726661682129 55.80219268798828 
-27.03058433532715 26.45189666748047 54.88785934448242 
-24.71489143371582 25.775793075561523 53.270755767822266 
-22.288846969604492 25.21765899658203 50.930599212646484 
-19.921934127807617 24.831518173217773 47.90061569213867 
-17.791048049926758 24.624486923217773 44.2563362121582 
-16.06256103515625 24.570358276367188 40.126651763916016 
-14.870174407958984 24.644285202026367 35.70488739013672 
-14.286785125732422 24.843706130981445 31.240449905395508 
-14.309158325195312 25.18560791015625 27.013736724853516 
-14.856133460998535 25.69711685180664 23.289161682128906 
-15.777802467346191 26.40393829345703 20.26325035095215 
-16.892663955688477 27.31783103942871 18.047683715820312 
-18.04136085510254 28.42055892944336 16.687305450439453 
-19.120521545410156 29.63619041442871 16.176822662353516 
-20.078746795654297 30.827831268310547 16.46003532409668 
-20.877595901489258 31.843353271484375 17.42013168334961 
-21.44940948486328 32.56161880493164 18.87868881225586 
-21.69942855834961 32.91267776489258 20.624799728393555 
-21.548362731933594 32.885353088378906 22.45511245727539 
-20.957176208496094 32.52523422241211 24.189184188842773 
-19.90875244140625 31.916616439819336 25.67220115661621 
-18.379899978637695 31.140148162841797 26.784046173095703 
-16.3400936126709 30.232221603393555 27.448867797851562 
-13.763372421264648 29.18367576599121 27.641605377197266 
-10.644723892211914 27.965322494506836 27.386083602905273 
-7.032251834869385 26.55362319946289 26.742916107177734 
-3.032104253768921 24.951244354248047 25.796354293823242 
1.2295902967453003 23.201698303222656 24.626062393188477 
5.621984481811523 21.391645431518555 23.276729583740234 
9.987921714782715 19.624710083007812 21.76766014099121 
14.138155937194824 17.975862503051758 20.119720458984375 
17.868946075439453 16.46578598022461 18.365556716918945 
20.979454040527344 15.070657730102539 16.555688858032227 
23.29094696044922 13.745279312133789 14.759392738342285 
24.672029495239258 12.438088417053223 13.049169540405273 
25.068618774414062 11.107994079589844 11.482523918151855 
24.52471160888672 9.74753189086914 10.092626571655273 
23.173171997070312 8.381556510925293 8.893898010253906 
21.207889556884766 7.04794979095459 7.896376132965088 
18.86083221435547 5.7990546226501465 7.104879379272461 
16.390296936035156 4.710556983947754 6.5092902183532715 
14.071581840515137 3.865772247314453 6.0942463874816895 
12.171591758728027 3.3277735710144043 5.850407123565674 
10.902655601501465 3.129326581954956 5.76386833190918 
10.389333724975586 3.2740888595581055 5.8001179695129395 
10.679534912109375 3.7294979095458984 5.902952671051025 
11.772102355957031 4.430167198181152 6.009530544281006 
13.61909294128418 5.3025054931640625 6.0510969161987305 
16.119266510009766 6.2890095710754395 5.946802616119385 
19.1312255859375 7.370677947998047 5.6264190673828125 
22.499038696289062 8.574962615966797 5.0521697998046875 
26.066503524780273 9.935142517089844 4.207727909088135 
29.67357635498047 11.436419486999512 3.0816051959991455 
33.15622329711914 13.023791313171387 1.6572504043579102 
36.3635139465332 14.653525352478027 -0.08792785555124283 
39.179115295410156 16.313657760620117 -2.152346134185791 
41.526405334472656 18.009761810302734 -4.4853997230529785 
43.34952926635742 19.758682250976562 -7.013054847717285 
44.61166763305664 21.589073181152344 -9.67827320098877 
45.32596969604492 23.51404571533203 -12.449841499328613 
45.5644416809082 25.4871883392334 -15.293301582336426 
45.4228630065918 27.396106719970703 -18.133756637573242 
44.980403900146484 29.11225700378418 -20.860027313232422 
44.293800354003906 30.556007385253906 -23.373245239257812 
43.414642333984375 31.710346221923828 -25.62954330444336 
42.40224075317383 32.578067779541016 -27.644529342651367 
41.33193588256836 33.15062713623047 -29.466724395751953 
40.29698181152344 33.41250991821289 -31.153532028198242 
39.389381408691406 33.350868225097656 -32.77537155151367 
38.673152923583984 32.96904754638672 -34.41902160644531 
38.18098068237305 32.31027603149414 -36.15798568725586 
37.92914581298828 31.47337532043457 -38.01390838623047 
37.921077728271484 30.601085662841797 -39.95256042480469 
38.13625717163086 29.836658477783203 -41.910621643066406 
38.54461669921875 29.281902313232422 -43.82112121582031 
39.15552520751953 28.989015579223633 -45.63785934448242 
40.03477096557617 28.978334426879883 -47.351436614990234 
41.253719329833984 29.257888793945312 -48.972007751464844 
42.821773529052734 29.815053939819336 -50.513980865478516 
44.666988372802734 30.590869903564453 -52.00552749633789 
46.67660903930664 31.49222755432129 -53.4798698425293 
48.75014114379883 32.44702911376953 -54.94533157348633 
50.80907440185547 33.441192626953125 -56.37612533569336 
52.77337646484375 34.504241943359375 -57.736209869384766 
54.54920959472656 35.66987228393555 -59.0079345703125 
56.0274543762207 36.945648193359375 -60.19995880126953 
57.07356262207031 38.30427551269531 -61.3413200378418 
57.535400390625 39.690040588378906 -62.46694564819336 
57.2862663269043 41.040382385253906 -63.590431213378906 
56.256080627441406 42.3159065246582 -64.69507598876953 
54.43788146972656 43.498085021972656 -65.75923919677734 
51.91294860839844 44.549556732177734 -66.77812957763672 
48.88408279418945 45.396331787109375 -67.75604248046875 
45.663665771484375 45.96223831176758 -68.69520568847656 
42.60942459106445 46.210140228271484 -69.61399841308594 
40.05887222290039 46.141666412353516 -70.55799102783203 
38.29109573364258 45.775917053222656 -71.56622314453125 
37.50397872924805 45.14390563964844 -72.63721466064453 
37.80575942993164 44.29853820800781 -73.73737335205078 
39.22458267211914 43.32119369506836 -74.81936645507812 
41.73100662231445 42.31258010864258 -75.81572723388672 
45.247711181640625 41.37845230102539 -76.64405059814453 
49.621944427490234 40.62568283081055 -77.25535583496094 
54.591922760009766 40.16321563720703 -77.66223907470703 
59.799678802490234 40.09502029418945 -77.90375518798828 
64.84716796875 40.510154724121094 -78.01393127441406 
69.35972595214844 41.477073669433594 -78.02680206298828 
73.02962493896484 43.028404235839844 -77.96592712402344 
75.62482452392578 45.140892028808594 -77.8016128540039 
76.99027252197266 47.74720001220703 -77.43083953857422 
77.0771255493164 50.77301788330078 -76.72237396240234 
75.97655487060547 54.14915466308594 -75.57596588134766 
73.92283630371094 57.7869758605957 -73.9312973022461 
71.26081085205078 61.55834197998047 -71.77059173583984 
68.38964080810547 65.31002044677734 -69.15254211425781 
65.70274353027344 68.8985595703125 -66.22610473632812 
63.55194854736328 72.21615600585938 -63.1934700012207 
62.2280158996582 75.20164489746094 -60.25752639770508 
61.92891311645508 77.84498596191406 -57.590091705322266 
62.740394592285156 80.18120574951172 -55.313140869140625 
64.64622497558594 82.2656478881836 -53.48286437988281 
67.52943420410156 84.14136505126953 -52.09741973876953 
71.1720199584961 85.82469177246094 -51.12007141113281 
75.29119110107422 87.3067398071289 -50.486507415771484 
79.59303283691406 88.54918670654297 -50.11286163330078 
83.8083724975586 89.48265075683594 -49.92749786376953 
87.70667266845703 90.01234436035156 -49.897891998291016 
91.11180877685547 90.0176773071289 -50.0245475769043 
93.9334945678711 89.36068725585938 -50.32209777832031 
96.18218231201172 87.92088317871094 -50.7985725402832 
97.93182373046875 85.63407897949219 -51.43000793457031 
99.2476577758789 82.50753021240234 -52.14888381958008 
100.14347076416016 78.6104965209961 -52.85674285888672 
100.61589050292969 74.06437683105469 -53.445220947265625 
100.70838928222656 69.0435791015625 -53.81418991088867 
100.53618621826172 63.75967025756836 -53.89065170288086 
100.26477813720703 58.435245513916016 -53.64532470703125 
100.06968688964844 53.29965591430664 -53.08835983276367 
100.09980773925781 48.578731536865234 -52.24529266357422 
100.46240234375 44.4636344909668 -51.14965057373047 
101.22293853759766 41.097320556640625 -49.85683822631836 
102.40203857421875 38.57378005981445 -48.450950622558594 
103.97795867919922 36.92782211303711 -47.03122329711914 
105.89584350585938 36.13400650024414 -45.67699432373047 
108.07025146484375 36.11875915527344 -44.41900634765625 
110.38633728027344 36.772369384765625 -43.254371643066406 
112.71924591064453 37.96714401245117 -42.201480865478516 
114.95693969726562 39.57979202270508 -41.34894561767578 
117.00489807128906 41.50157928466797 -40.8426399230957 
118.78985595703125 43.62643814086914 -40.81027603149414 
120.2731704711914 45.83039855957031 -41.28261184692383 
121.45463562011719 47.98507308959961 -42.163726806640625 
122.36368560791016 50.009639739990234 -43.2740592956543 
123.03337860107422 51.89717483520508 -44.447265625 
123.47193908691406 53.68845748901367 -45.59696960449219 
123.67737579345703 55.43753433227539 -46.702850341796875 
123.68509674072266 57.198421478271484 -47.7763786315918 
123.59105682373047 59.01993179321289 -48.85411071777344 
123.5214614868164 60.929080963134766 -49.994659423828125 
123.5823745727539 62.919498443603516 -51.28034591674805 
123.82425689697266 64.96985626220703 -52.82606506347656 
124.22390747070312 67.06160736083984 -54.749691009521484 
124.70001983642578 69.16887664794922 -57.11868667602539 
125.16425323486328 71.24788665771484 -59.93986892700195 
125.56900024414062 73.24021911621094 -63.19929885864258 
125.9051284790039 75.06314849853516 -66.904296875 
126.16535949707031 76.59754943847656 -71.0850601196289 
126.31826782226562 77.72334289550781 -75.76095581054688 
126.30872344970703 78.39081573486328 -80.89820098876953 
126.08403778076172 78.6550521850586 -86.3774185180664 
125.61961364746094 78.64120483398438 -91.9935302734375 
124.91092681884766 78.48688507080078 -97.49154663085938 
123.95341491699219 78.31867980957031 -102.6128921508789 
122.75086212158203 78.25733947753906 -107.13816833496094 
121.34120178222656 78.40919494628906 -110.92461395263672 
119.80847930908203 78.83396911621094 -113.92127227783203 
118.27893829345703 79.51368713378906 -116.16149139404297 
116.90766143798828 80.35108184814453 -117.761962890625 
115.84088134765625 81.2103042602539 -118.9253921508789 
115.18209075927734 81.97112274169922 -119.91756439208984 
114.99788665771484 82.55240631103516 -121.020751953125 
115.328369140625 82.89960479736328 -122.48889923095703 
116.18013763427734 82.9626693725586 -124.51276397705078 
117.53238677978516 82.6822738647461 -127.20291137695312 
119.35364532470703 81.98999786376953 -130.6047821044922 
121.58834075927734 80.8156509399414 -134.71177673339844 
124.13287353515625 79.08519744873047 -139.44393920898438 
126.83977508544922 76.71468353271484 -144.63795471191406 
129.5349884033203 73.63047790527344 -150.08509826660156 
132.02549743652344 69.81051635742188 -155.57351684570312 
134.1046142578125 65.30529022216797 -160.89894104003906 
135.58291625976562 60.22768020629883 -165.87413024902344 
136.34567260742188 54.73080062866211 -170.3606719970703 
136.3977813720703 48.988040924072266 -174.2997589111328 
135.8527374267578 43.17656326293945 -177.71006774902344 
134.86752319335938 37.46373748779297 -180.63438415527344 
133.59153747558594 32.004886627197266 -183.0730743408203 
132.16929626464844 26.947656631469727 -184.97471618652344 
130.74948120117188 22.41997718811035 -186.28384399414062 
129.4725799560547 18.50278663635254 -186.99119567871094 
128.4496307373047 15.219449043273926 -187.15676879882812 
127.7311019897461 12.546464920043945 -186.9053497314453 
127.26746368408203 10.42025375366211 -186.4058380126953 
126.8923568725586 8.754023551940918 -185.83627319335938 
126.35262298583984 7.485367298126221 -185.3330535888672 
125.37589263916016 6.612373352050781 -184.9722442626953 
123.76577758789062 6.178445816040039 -184.82847595214844 
121.47834777832031 6.229338645935059 -185.0493621826172 
118.61045837402344 6.7889628410339355 -185.8601837158203 
115.31816864013672 7.8733015060424805 -187.5181427001953 
111.75556945800781 9.517595291137695 -190.27609252929688 
108.07954406738281 11.78046703338623 -194.3433380126953 
104.4939193725586 14.713645935058594 -199.7993621826172 
101.28296661376953 18.299114227294922 -206.51451110839844 
98.80335998535156 22.38070297241211 -214.17474365234375 
97.4526138305664 26.6366024017334 -222.38970947265625 
97.628662109375 30.605152130126953 -230.7880096435547 
99.65604400634766 33.75783157348633 -239.05323791503906 
103.69081115722656 35.609535217285156 -246.91421508789062 
109.65823364257812 35.818058013916016 -254.12342834472656 
117.25364685058594 34.22490692138672 -260.4403076171875 
125.9953384399414 30.84587287902832 -265.6125793457031 
135.2930450439453 25.835323333740234 -269.3597412109375 
144.5037841796875 19.430673599243164 -271.3777770996094 
152.97433471679688 11.905564308166504 -271.3798828125 
160.09567260742188 3.5550124645233154 -269.16375732421875 
165.3820343017578 -5.317692756652832 -264.66253662109375 
168.54330444335938 -14.433364868164062 -257.9493713378906 
169.5104522705078 -23.566198348999023 -249.21023559570312 
168.41775512695312 -32.55232238769531 -238.69888305664062 
165.56495666503906 -41.271812438964844 -226.6864471435547 
161.34722900390625 -49.61358642578125 -213.42784118652344 
156.16610717773438 -57.465187072753906 -199.1359100341797 
150.36326599121094 -64.73099517822266 -183.95858764648438 
144.20338439941406 -71.31094360351562 -168.0016326904297 
137.91152954101562 -77.02920532226562 -151.38417053222656 
131.72203063964844 -81.6017837524414 -134.26206970214844 
125.90331268310547 -84.69332122802734 -116.82691955566406 
120.77412414550781 -86.00725555419922 -99.3072738647461 
116.70045471191406 -85.33247375488281 -81.95317840576172 
114.04424285888672 -82.54633331298828 -65.00727844238281 
113.09419250488281 -77.61602020263672 -48.693321228027344 
114.03065490722656 -70.60360717773438 -33.23440933227539 
116.94204711914062 -61.68229293823242 -18.873096466064453 
121.85816192626953 -51.17169952392578 -5.857390403747559 
128.75547790527344 -39.54197692871094 5.607071399688721 
137.53610229492188 -27.357654571533203 15.403295516967773 
147.99122619628906 -15.184954643249512 23.51315689086914 
159.75949096679688 -3.4852678775787354 29.99256134033203 
172.33767700195312 7.465514659881592 34.90658950805664 
185.16200256347656 17.59591293334961 38.2234992980957 
197.68507385253906 26.99803352355957 39.763248443603516 
209.41250610351562 35.844356536865234 39.2951774597168 
219.93626403808594 44.29042053222656 36.71335983276367 
228.9785614013672 52.394290924072266 32.15971374511719 
236.41119384765625 60.0654411315918 26.043228149414062 
242.24896240234375 67.04777526855469 18.96956443786621 
246.6502685546875 72.93599700927734 11.63892936706543 
249.91326904296875 77.21507263183594 4.746084690093994 
252.43362426757812 79.33414459228516 -1.1290851831436157 
254.6181182861328 78.82950592041016 -5.619620323181152 
256.77618408203125 75.46218872070312 -8.624735832214355 
259.0212707519531 69.30520629882812 -10.3198881149292 
261.2042236328125 60.746620178222656 -11.110279083251953 
262.91009521484375 50.44399642944336 -11.532295227050781 
263.5447692871094 39.260108947753906 -12.172303199768066 
262.47662353515625 28.1564998626709 -13.624503135681152 
259.1827697753906 18.051795959472656 -16.44315528869629 
253.3666229248047 9.700896263122559 -21.09114646911621 
245.01058959960938 3.6241960525512695 -27.899158477783203 
234.3552703857422 0.07732167094945908 -37.02696228027344 
221.83253479003906 -0.944648802280426 -48.44506072998047 
208.0081787109375 0.3263570964336395 -61.95039749145508 
193.5520782470703 3.490704298019409 -77.20673370361328 
179.19097900390625 8.064155578613281 -93.79301452636719 
165.6161346435547 13.557778358459473 -111.23351287841797 
153.38955688476562 19.532175064086914 -129.00408935546875 
142.8906707763672 25.623367309570312 -146.54214477539062 
134.3123779296875 31.530292510986328 -163.27438354492188 
127.70520782470703 36.980377197265625 -178.6439208984375 
123.0273208618164 41.72001266479492 -192.13516235351562 
120.16167449951172 45.54324722290039 -203.31690979003906 
118.93614196777344 48.332828521728516 -211.89610290527344 
119.16130065917969 50.07927703857422 -217.74464416503906 
120.65441131591797 50.864810943603516 -220.89321899414062 
123.24745178222656 50.83018493652344 -221.50335693359375 
126.7770004272461 50.13850784301758 -219.80404663085938 
131.0565948486328 48.95011520385742 -216.02224731445312 
135.85377502441406 47.42380142211914 -210.36708068847656 
140.89088439941406 45.720455169677734 -203.05325317382812 
145.864501953125 43.987693786621094 -194.28756713867188 
150.4757080078125 42.35986328125 -184.21630859375 
154.4797821044922 40.99849319458008 -172.91323852539062 
157.73577880859375 40.12994384765625 -160.4300537109375 
160.2147216796875 40.028011322021484 -146.8373260498047 
161.9779052734375 40.94987487792969 -132.23452758789062 
163.16250610351562 43.078338623046875 -116.76476287841797 
163.9741973876953 46.5020637512207 -100.61882781982422 
164.6787567138672 51.212276458740234 -84.01187896728516 
165.59121704101562 57.09177780151367 -67.15666961669922 
167.0645294189453 63.91587829589844 -50.25385665893555 
169.47201538085938 71.38648986816406 -33.50457000732422 
173.15577697753906 79.1766128540039 -17.124237060546875 
178.36141967773438 86.95246124267578 -1.3402684926986694 
185.21852111816406 94.38291931152344 13.61474323272705 
193.7397003173828 101.1620101928711 27.520084381103516 
203.78466796875 107.03990936279297 40.19651794433594 
215.0322723388672 111.83863830566406 51.515647888183594 
227.0157928466797 115.42647552490234 61.38215637207031 
239.20262145996094 117.66641235351562 69.73038482666016 
251.0809783935547 118.3951187133789 76.53850555419922 
262.23455810546875 117.43941497802734 81.82404327392578 
272.3792724609375 114.63265991210938 85.63192749023438 
281.32611083984375 109.82848358154297 88.05819702148438 
288.8828125 102.93268585205078 89.29596710205078 
294.7854919433594 93.94979858398438 89.61588287353516 
298.7245178222656 83.031982421875 89.24687957763672 
300.4129333496094 70.5240707397461 88.2488021850586 
299.61663818359375 56.97974395751953 86.46168518066406 
296.1564025878906 43.12556838989258 83.5091552734375 
289.9618225097656 29.7951717376709 78.84866333007812 
281.174560546875 17.85553741455078 71.89253997802734 
270.2117004394531 8.10625171661377 62.10232925415039 
257.7530822753906 1.1583367586135864 48.994022369384766 
244.67359924316406 -2.655336618423462 32.17654800415039 
231.94943237304688 -3.312530755996704 11.445648193359375 
220.55091857910156 -1.0812270641326904 -13.192997932434082 
211.3145294189453 3.552076578140259 -41.56725311279297 
204.82154846191406 9.980219841003418 -73.37831115722656 
201.33819580078125 17.555360794067383 -108.2261962890625 
200.8319549560547 25.644947052001953 -145.58984375 
203.0330352783203 33.67668151855469 -184.77243041992188 
207.51393127441406 41.15503692626953 -224.89353942871094 
213.7718505859375 47.65382766723633 -264.9383239746094 
221.29510498046875 52.81708908081055 -303.8138732910156 
229.595947265625 56.359947204589844 -340.3959045410156 
238.20272827148438 58.07366180419922 -373.5740051269531 
246.62130737304688 57.868011474609375 -402.2980651855469 
254.26181030273438 55.83164978027344 -425.6322326660156 
260.3825378417969 52.253448486328125 -442.8423767089844 
264.1570739746094 47.57900619506836 -453.50701904296875 
264.82757568359375 42.34523010253906 -457.5898742675781 
261.80126953125 37.144126892089844 -455.4521179199219 
254.678955078125 32.595157623291016 -447.8318786621094 
243.30996704101562 29.298009872436523 -435.7875671386719 
227.89248657226562 27.767723083496094 -420.5953063964844 
209.04043579101562 28.35898780822754 -403.62353515625 
187.74893188476562 31.213788986206055 -386.196044921875 
165.27993774414062 36.25868606567383 -369.4403381347656 
143.03538513183594 43.22433090209961 -354.1553649902344 
122.45306396484375 51.66812515258789 -340.7407531738281 
104.89759826660156 61.02277374267578 -329.1946716308594 
91.51692199707031 70.6797866821289 -319.1707763671875 
83.1233901977539 80.0904769897461 -310.05810546875 
80.13520812988281 88.85855102539062 -301.0484924316406 
82.5372085571289 96.78910827636719 -291.1994323730469 
89.87461853027344 103.88754272460938 -279.524169921875 
101.30394744873047 110.33613586425781 -265.104248046875 
115.68926239013672 116.45223999023438 -247.18026733398438 
131.73228454589844 122.6312026977539 -225.2250213623047 
148.10231018066406 129.3050537109375 -198.99534606933594 
163.53526306152344 136.91696166992188 -168.52745056152344 
176.91220092773438 145.8838653564453 -134.13003540039062 
187.35218811035156 156.55433654785156 -96.43184661865234 
194.33981323242188 169.17723083496094 -56.422996520996094 
197.83287048339844 183.8605194091797 -15.411190032958984 
198.2745361328125 200.52333068847656 25.125198364257812 
196.50376892089844 218.88272094726562 63.73701095581055 
193.58642578125 238.48638916015625 99.16775512695312 
190.6031494140625 258.7715148925781 130.433349609375 
188.44798278808594 279.1349182128906 156.8307342529297 
187.65830993652344 299.0052795410156 177.9064178466797 
188.3992919921875 317.9242248535156 193.41806030273438 
190.68675231933594 335.63543701171875 203.30328369140625 
194.4392852783203 352.13446044921875 207.65402221679688 
199.141357421875 367.6382141113281 206.6867218017578 
203.67835998535156 382.5189514160156 200.68394470214844 
206.61073303222656 397.2673034667969 189.9286651611328 
206.54080200195312 412.44451904296875 174.707275390625 
202.3679656982422 428.581787109375 155.36256408691406 
193.46035766601562 446.0697326660156 132.3178253173828 
179.78042602539062 465.0625 106.09022521972656 
161.94837951660156 485.3855285644531 77.328125 
141.21145629882812 506.48907470703125 46.85272979736328 
119.30651092529297 527.4906616210938 15.68998908996582 
98.2375717163086 547.2546997070312 -14.917555809020996 
80.0519027709961 564.4482421875 -43.53761291503906 
66.65460205078125 577.6084594726562 -68.62805938720703 
59.610233306884766 585.2826538085938 -88.66590881347656 
59.936580657958984 586.2077026367188 -102.28654479980469 
67.96797943115234 579.4584350585938 -108.41553497314453 
83.33989715576172 564.5531616210938 -106.40283966064453 
105.09053802490234 541.5022583007812 -96.1082992553711 
131.81781005859375 510.7699279785156 -77.89010620117188 
161.84352111816406 473.1935119628906 -52.54420852661133 
193.39852905273438 429.89007568359375 -21.239633560180664 
224.82022094726562 382.1220397949219 14.568963050842285 
254.71502685546875 331.1632080078125 53.25176239013672 
282.0662536621094 278.2185363769531 93.0983657836914 
306.2829895019531 224.3873291015625 132.38697814941406 
327.18890380859375 170.65719604492188 169.45509338378906 
344.97430419921875 117.9046401977539 202.76382446289062 
360.109375 66.88367462158203 230.93869018554688 
373.19775390625 18.228193283081055 252.83468627929688 
384.8102111816406 -27.53238296508789 267.64593505859375 
395.3738098144531 -69.98546600341797 274.98291015625 
405.14306640625 -108.8757553100586 274.8771057128906 
414.228271484375 -144.11573791503906 267.7486572265625 
422.653564453125 -175.71104431152344 254.32269287109375 
430.442138671875 -203.62960815429688 235.4711456298828 
437.7336730957031 -227.7215576171875 212.0664825439453 
444.9023132324219 -247.73414611816406 184.93995666503906 
452.5832214355469 -263.37371826171875 154.9185791015625 
461.6227111816406 -274.3925476074219 122.86575317382812 
473.0982360839844 -280.72723388671875 89.71971893310547 
488.2418212890625 -282.6919860839844 56.57240676879883 
508.0517578125 -281.1580505371094 24.773386001586914 
533.0421142578125 -277.6272277832031 -4.052143096923828 
563.3883666992188 -274.14178466796875 -28.152387619018555 
598.8616333007812 -272.9576721191406 -45.89555358886719 
638.3444213867188 -276.0088195800781 -55.97598648071289 
679.5031127929688 -284.40155029296875 -57.537899017333984 
718.8630981445312 -298.1423645019531 -50.236019134521484 
752.2293090820312 -316.1234436035156 -34.20178985595703 
775.5094604492188 -336.3265686035156 -9.906620979309082 
785.476806640625 -356.1839599609375 21.994237899780273 
779.9781494140625 -373.02667236328125 60.75242614746094 
758.0045776367188 -384.5340576171875 105.58642578125 
719.9454345703125 -389.0675354003906 155.75546264648438 
667.6909790039062 -385.8289489746094 210.56597900390625 
604.3671875 -374.81768798828125 269.2680969238281 
533.7835693359375 -356.5762023925781 330.9100646972656 
459.81695556640625 -331.8417663574219 394.1973876953125 
385.9747314453125 -301.2461242675781 457.3828430175781 
315.18896484375 -265.1156311035156 518.2451171875 
249.752197265625 -223.43394470214844 574.1768188476562 
191.36123657226562 -175.98509216308594 622.34326171875 
141.26475524902344 -122.55313110351562 659.84912109375 
100.46432495117188 -63.07346725463867 683.8882446289062 
69.82221221923828 2.234790325164795 691.9417724609375 
49.94015121459961 72.75098419189453 682.0007934570312 
41.08104705810547 147.3970489501953 652.7153930664062 
43.37245178222656 224.64028930664062 603.5248413085938 
56.937889099121094 302.5535888671875 534.7783203125 
81.73947143554688 378.9371643066406 447.71173095703125 
117.31140899658203 451.4616394042969 344.3225402832031 
162.4969482421875 517.790771484375 227.29661560058594 
215.28121948242188 575.6759643554688 99.92239379882812 
272.7874755859375 623.0348510742188 -34.12186050415039 
331.471923828125 657.9906005859375 -171.0189666748047 
387.5401916503906 678.8390502929688 -307.0334167480469 
437.2945251464844 684.031005859375 -438.7494812011719 
477.2239685058594 672.29150390625 -563.2769775390625 
504.1698913574219 642.796875 -678.364013671875 
515.7970581054688 595.2824096679688 -782.4662475585938 
511.13433837890625 530.1309204101562 -874.776611328125 
490.6236572265625 448.43890380859375 -955.1776733398438 
455.5892639160156 351.96240234375 -1024.145263671875 
407.82318115234375 243.02383422851562 -1082.607421875 
349.64276123046875 124.4405517578125 -1131.7618408203125 
284.0805969238281 -0.6133747100830078 -1172.912109375 
214.75779724121094 -128.78369140625 -1207.333984375 
145.4282684326172 -256.684326171875 -1236.1513671875 
79.438232421875 -381.0516052246094 -1260.25146484375 
19.208833694458008 -498.8922424316406 -1280.2655029296875 
-33.95317840576172 -607.5833740234375 -1296.58544921875 
-79.60558319091797 -704.9381713867188 -1309.3919677734375 
-117.84172058105469 -789.2615966796875 -1318.695556640625 
-149.08087158203125 -859.3934326171875 -1324.38232421875 
-173.946044921875 -914.6942138671875 -1326.2550048828125 
-193.18521118164062 -954.9639282226562 -1324.067138671875 
-207.61129760742188 -980.3582153320312 -1317.5614013671875 
-218.0701446533203 -991.3154296875 -1306.4925537109375 
-225.41844177246094 -988.4519653320312 -1290.629638671875 
-230.46844482421875 -972.4871826171875 -1269.7584228515625 
-233.90261840820312 -944.2443237304688 -1243.7191162109375 
-236.20065307617188 -904.6653442382812 -1212.447998046875 
-237.61959838867188 -854.8173217773438 -1175.982666015625 
-238.23193359375 -795.8958740234375 -1134.474853515625 
-237.9597625732422 -729.1998291015625 -1088.2269287109375 
-236.55641174316406 -656.1207885742188 -1037.70458984375 
-233.58270263671875 -578.1516723632812 -983.526123046875 
-228.43186950683594 -496.8380126953125 -926.4400634765625 
-220.40597534179688 -413.75213623046875 -867.2735595703125 
-208.8220977783203 -330.5556335449219 -806.8818969726562 
-193.10787963867188 -249.0088348388672 -746.1322631835938 
-172.98146057128906 -170.8648223876953 -685.9053344726562 
-148.73707580566406 -97.75543212890625 -627.0844116210938 
-121.17571258544922 -31.110179901123047 -570.5018920898438 
-91.08438873291016 27.907745361328125 -516.8777465820312 
-58.96923065185547 78.44944763183594 -466.8241271972656 
-25.242088317871094 120.00204467773438 -420.8878173828125 
9.584920883178711 152.35646057128906 -379.5310363769531 
44.85245132446289 175.5463409423828 -343.0418395996094 
79.77375030517578 189.8112335205078 -311.4520263671875 
113.47045135498047 195.5804901123047 -284.53985595703125 
145.00497436523438 193.47726440429688 -261.9091491699219 
173.43136596679688 184.34141540527344 -243.05474853515625 
197.8685760498047 169.20745849609375 -227.3607177734375 
217.57875061035156 149.2112579345703 -214.09884643554688 
232.05587768554688 125.48076629638672 -202.501953125 
241.13134765625 99.04429626464844 -191.86538696289062 
245.051513671875 70.77306365966797 -181.6061248779297 
244.46231079101562 41.3927001953125 -171.28236389160156 
240.30201721191406 11.559237480163574 -160.60450744628906 
233.6530303955078 -18.06057357788086 -149.44744873046875 
225.58389282226562 -46.76153564453125 -137.8491668701172 
216.99468994140625 -73.82274627685547 -125.98985290527344 
208.51278686523438 -98.52568817138672 -114.15848541259766 
200.48965454101562 -120.16178131103516 -102.71324157714844 
193.16827392578125 -138.0811004638672 -92.04915618896484 
186.9691162109375 -151.76422119140625 -82.57768249511719 
182.44900512695312 -160.86300659179688 -74.6937255859375 
179.8191375732422 -165.22833251953125 -68.71525573730469 
178.67779541015625 -164.94268798828125 -64.82329559326172 
178.14739990234375 -160.31744384765625 -63.04437255859375 
177.03164672851562 -151.84835815429688 -63.28018569946289 
174.16091918945312 -140.16712951660156 -65.34190368652344 
169.02688598632812 -125.9911117553711 -68.95532989501953 
162.0906219482422 -110.07427978515625 -73.7591781616211 
154.52935791015625 -93.17994689941406 -79.32823944091797 
147.8307647705078 -76.05596923828125 -85.21400451660156 
143.48876953125 -59.39359664916992 -90.97938537597656 
142.76904296875 -43.77449035644531 -96.22920989990234 
146.47743225097656 -29.5938720703125 -100.64128875732422 
154.7928009033203 -17.00100326538086 -103.97643280029297 
167.27883911132812 -5.939102649688721 -106.05462646484375 
183.0549774169922 3.737391948699951 -106.71886444091797 
200.9982452392578 12.170454978942871 -105.83448028564453 
219.88516235351562 19.486074447631836 -103.33906555175781 
238.48654174804688 25.835954666137695 -99.29076385498047 
255.6577911376953 31.43207359313965 -93.87789916992188 
270.4271545410156 36.54146957397461 -87.39585876464844 
282.06085205078125 41.44632339477539 -80.20513153076172 
290.100341796875 46.38167190551758 -72.68810272216797 
294.3900451660156 51.469234466552734 -65.2109146118164 
295.0909118652344 56.687255859375 -58.09486770629883 
292.6546325683594 61.90767288208008 -51.59671401977539 
287.75067138671875 66.97440338134766 -45.882179260253906 
281.1568603515625 71.75935363769531 -40.987186431884766 
273.65350341796875 76.16629791259766 -36.78849411010742 
265.9742126464844 80.11104583740234 -33.0306510925293 
258.78778076171875 83.51039123535156 -29.4094181060791 
252.66102600097656 86.27686309814453 -25.627655029296875 
248.03147888183594 88.3155288696289 -21.380205154418945 
245.22239685058594 89.52754211425781 -16.329580307006836 
244.4791259765625 89.8091049194336 -10.134370803833008 
245.9884033203125 89.03632354736328 -2.5227444171905518 
249.83290100097656 87.06017303466797 6.632500648498535 
255.89413452148438 83.75807189941406 17.296024322509766 
263.820556640625 79.13970947265625 29.343828201293945 
273.13604736328125 73.39920043945312 42.64393997192383 
283.3943176269531 66.8106460571289 57.04783630371094 
294.14703369140625 59.57121658325195 72.35635375976562 
304.720458984375 51.78443145751953 88.33784484863281 
314.324951171875 43.56220245361328 104.76728057861328 
322.6202087402344 35.076839447021484 121.47278594970703 
330.0047302246094 26.512592315673828 138.40908813476562 
337.3723449707031 17.99624252319336 155.70162963867188 
345.7459411621094 9.573678970336914 173.61610412597656 
355.9508056640625 1.2530823945999146 192.49398803710938 
368.31292724609375 -6.911815643310547 212.67410278320312 
382.56268310546875 -14.75964069366455 234.4149169921875 
398.061279296875 -21.990156173706055 257.8450927734375 
413.9134216308594 -28.136634826660156 282.91754150390625 
428.70819091796875 -32.55003356933594 309.3694763183594 
440.478515625 -34.42496871948242 336.7375793457031 
447.15460205078125 -32.88335037231445 364.4086608886719 
447.0832214355469 -27.079833984375 391.64483642578125 
439.3641052246094 -16.286596298217773 417.5791015625 
424.0155029296875 0.013439062982797623 441.22772216796875 
401.9768981933594 22.023290634155273 461.55523681640625 
375.0010986328125 49.580078125 477.5784912109375 
345.4703674316406 82.13726043701172 488.460205078125 
316.0201721191406 118.73678588867188 493.5715026855469 
288.9840087890625 158.02304077148438 492.531494140625 
266.1420593261719 198.34701538085938 485.21307373046875 
248.9639129638672 237.93104553222656 471.71942138671875 
238.7826385498047 275.0325012207031 452.343017578125 
236.62290954589844 308.05596923828125 427.5211486816406 
242.9439697265625 335.6355895996094 397.8460388183594 
257.4647521972656 356.7100830078125 364.11541748046875 
279.11859130859375 370.53961181640625 327.31475830078125 
306.14862060546875 376.69482421875 288.5252990722656 
336.30633544921875 375.0905456542969 248.84039306640625 
367.1084899902344 366.0105895996094 209.31683349609375 
396.1787414550781 350.0715637207031 170.9329833984375 
421.64898681640625 328.1394348144531 134.53805541992188 
442.2260437011719 301.2236022949219 100.81572723388672 
456.8310546875 270.3912048339844 70.28206634521484 
464.4410400390625 236.73330688476562 43.28818130493164 
464.33062744140625 201.36453247070312 19.99144172668457 
456.3036804199219 165.39981079101562 0.3222833573818207 
440.7481994628906 129.9029083251953 -16.0029296875 
418.56646728515625 95.85829162597656 -29.430103302001953 
391.0410461425781 64.1572494506836 -40.50831985473633 
359.6993408203125 35.55799865722656 -49.824867248535156 
326.1903991699219 10.662853240966797 -57.93935012817383 
292.15789794921875 -10.046735763549805 -65.3462142944336 
259.1067199707031 -26.17392921447754 -72.48181915283203 
228.29635620117188 -37.42084503173828 -79.7479019165039 
200.693115234375 -43.625396728515625 -87.51519012451172 
176.97723388671875 -44.780731201171875 -96.10743713378906 
157.58401489257812 -41.03709411621094 -105.7625961303711 
142.756591796875 -32.69838333129883 -116.5772705078125 
132.5719451904297 -20.203319549560547 -128.50115966796875 
126.9155502319336 -4.09011697769165 -141.39361572265625 
125.44674682617188 15.030539512634277 -155.0611114501953 
127.60301971435547 36.49290466308594 -169.2698974609375 
132.6460418701172 59.60316848754883 -183.7804412841797 
139.73440551757812 83.68701934814453 -198.38803100585938 
148.0010223388672 108.14781188964844 -212.94058227539062 
156.61749267578125 132.4947052001953 -227.31533813476562 
164.83334350585938 156.3321075439453 -241.37730407714844 
171.99612426757812 179.34817504882812 -254.98580932617188 
177.57179260253906 201.30508422851562 -268.0538635253906 
181.17489624023438 222.00863647460938 -280.595458984375 
182.6007537841797 241.27029418945312 -292.7273254394531 
181.8357696533203 258.8858947753906 -304.64111328125 
179.03228759765625 274.626708984375 -316.5588073730469 
174.4644775390625 288.2301940917969 -328.67340087890625 
168.48068237304688 299.4060974121094 -341.08563232421875 
161.4745635986328 307.8819274902344 -353.769775390625 
153.88128662109375 313.4660339355469 -366.6067199707031 
146.1573028564453 316.07330322265625 -379.4757995605469 
138.71446228027344 315.7010192871094 -392.33331298828125 
131.84230041503906 312.41192626953125 -405.2191162109375 
125.7664566040039 306.3499755859375 -418.2206115722656 
120.76905059814453 297.7443542480469 -431.4517822265625 
116.92059326171875 286.8730163574219 -445.0391540527344 
113.75440979003906 274.0030517578125 -459.093505859375 
110.6517333984375 259.3312072753906 -473.6730041503906 
107.42465209960938 242.91038513183594 -488.725341796875 
104.35653686523438 224.55921936035156 -504.0255432128906 
101.94239044189453 203.85108947753906 -519.162841796875 
100.65858459472656 180.25367736816406 -533.6131591796875 
100.7929916381836 153.33770751953125 -546.8836669921875 
102.35443878173828 122.95938873291016 -558.654296875 
105.17514038085938 89.39029693603516 -568.8275146484375 
109.16099548339844 53.35686492919922 -577.4934692382812 
114.23665618896484 15.99833869934082 -584.867919921875 
119.94035339355469 -21.199541091918945 -591.2078857421875 
125.3236083984375 -56.50947189331055 -596.7061157226562 
129.2935791015625 -88.135986328125 -601.3851928710938 
130.9320831298828 -114.38333892822266 -604.982421875 
129.6084747314453 -133.72906494140625 -606.873291015625 
124.98438262939453 -144.89605712890625 -606.1444091796875 
117.01446533203125 -147.01846313476562 -601.792724609375 
105.93995666503906 -139.73716735839844 -592.9183349609375 
92.18624114990234 -123.09873962402344 -578.855712890625 
76.21781158447266 -97.39047241210938 -559.2378540039062 
58.49396514892578 -63.066078186035156 -534.0175170898438 
39.51634216308594 -20.811243057250977 -503.49835205078125 
19.877683639526367 28.326976776123047 -468.36956787109375 
0.2749054729938507 82.88032531738281 -429.69378662109375 
-18.50146484375 140.99078369140625 -388.85986328125 
-35.59312438964844 200.4911346435547 -347.5067443847656 
-50.20305252075195 259.0263366699219 -307.3862609863281 
-61.77897644042969 314.2042236328125 -270.1966857910156 
-69.89169311523438 363.7572937011719 -237.4589385986328 
-73.8437728881836 405.69622802734375 -210.41506958007812 
-72.55723571777344 438.4175720214844 -189.88819885253906 
-64.87487030029297 460.75347900390625 -176.14712524414062 
-49.99092102050781 472.02752685546875 -168.87078857421875 
-27.799861907958984 472.14459228515625 -167.22802734375 
0.9451455473899841 461.64007568359375 -169.98753356933594 
34.63005065917969 441.6573791503906 -175.59230041503906 
70.88139343261719 413.8815002441406 -182.2538299560547 
106.81736755371094 380.4259033203125 -188.10891723632812 
139.3782196044922 343.6801452636719 -191.3883056640625 
165.61485290527344 306.1398010253906 -190.56866455078125 
182.99676513671875 270.23272705078125 -184.50299072265625 
189.7303009033203 238.16085815429688 -172.51866149902344 
185.02590942382812 211.7523651123047 -154.49105834960938 
169.32717895507812 192.3320770263672 -130.85675048828125 
144.173095703125 180.65602111816406 -102.507080078125 
111.5786361694336 176.90567016601562 -70.61079406738281 
73.56902313232422 180.7384796142578 -36.466590881347656 
32.14005661010742 191.41464233398438 -1.4031686782836914 
-10.716064453125 207.94879150390625 33.2889518737793 
-53.053138732910156 229.23504638671875 66.39308166503906 
-92.9813003540039 254.16976928710938 96.79203033447266 
-128.66261291503906 281.7722473144531 123.49555969238281 
-158.361328125 311.2259216308594 145.66549682617188 
-180.53659057617188 341.8174743652344 162.63011169433594 
-193.95269775390625 372.8688049316406 173.86830139160156 
-197.7870635986328 403.7117919921875 178.98194885253906 
-191.70260620117188 433.6875305175781 177.6666717529297 
-175.8772735595703 462.17926025390625 169.67518615722656 
-150.9180145263672 488.6451416015625 154.83311462402344 
-117.63850402832031 512.5731201171875 133.1049041748047 
-76.95891571044922 533.3729248046875 104.5984115600586 
-30.045928955078125 550.3096923828125 69.51092529296875 
21.77405548095703 562.491455078125 28.141796112060547 
77.66616821289062 568.8248901367188 -18.96807861328125 
137.98374938964844 567.8853759765625 -70.79344177246094 
204.2915496826172 557.6759033203125 -125.59680938720703 
278.73223876953125 535.4224243164062 -180.92759704589844 
363.18243408203125 497.7933044433594 -233.95718383789062 
458.4041748046875 441.66351318359375 -281.9975891113281 
563.2776489257812 364.990478515625 -322.9021301269531 
674.3080444335938 267.3456726074219 -355.1837158203125 
785.7627563476562 150.05767822265625 -377.93572998046875 
890.394775390625 16.111515045166016 -390.6657409667969 
980.1776733398438 -130.09280395507812 -393.0680236816406 
1047.1494140625 -283.0456237792969 -384.79498291015625 
1084.592041015625 -436.51123046875 -365.22454833984375 
1087.893310546875 -584.080810546875 -333.16644287109375 
1054.9239501953125 -719.876708984375 -286.7164611816406 
986.4627075195312 -839.2353515625 -223.59947204589844 
886.5242309570312 -939.1700439453125 -141.92657470703125 
762.0445556640625 -1018.4734497070312 -40.97300338745117 
621.8621826171875 -1077.4439697265625 78.23189544677734 
475.3442077636719 -1117.3409423828125 212.58021545410156 
331.0921630859375 -1139.6470947265625 356.8901062011719 
196.03250122070312 -1145.3175048828125 504.2292785644531 
74.99544525146484 -1134.4432373046875 646.5933837890625 
-29.28384780883789 -1106.4405517578125 775.85546875 
-115.82731628417969 -1060.3560791015625 884.6679077148438 
-184.88992309570312 -995.057373046875 967.09765625 
-237.477783203125 -909.40869140625 1018.98486328125 
-274.7951354980469 -802.6121215820312 1038.130615234375 
-297.5825500488281 -674.6921997070312 1024.406494140625 
-305.7823486328125 -526.8922119140625 979.6994018554688 
-298.6636657714844 -361.95635986328125 907.5449829101562 
-275.04718017578125 -184.326416015625 812.5588989257812 
-233.52227783203125 -0.09763595461845398 699.9559326171875 
-173.0051727294922 183.29763793945312 575.2404174804688 
-93.57525634765625 357.5703125 443.8814697265625 
3.027888059616089 514.1213989257812 310.8968200683594 
113.42575073242188 644.6136474609375 180.4857177734375 
232.9110107421875 741.630859375 55.862464904785156 
355.9224853515625 799.3050537109375 -60.715736389160156 
476.46539306640625 813.7105102539062 -167.8381805419922 
588.3607177734375 783.1751708984375 -264.7921447753906 
685.42822265625 708.5615844726562 -351.40350341796875 
761.7640991210938 593.2752685546875 -427.8845520019531 
812.4412841796875 442.9869384765625 -494.6475524902344 
834.38818359375 265.1479797363281 -552.107421875 
826.6375122070312 68.31781005859375 -600.5761108398438 
789.9774780273438 -138.5349884033203 -640.30322265625 
726.7001953125 -346.63055419921875 -671.6051025390625 
640.6022338867188 -547.8997192382812 -694.9686889648438 
536.8883056640625 -735.3919067382812 -711.0982666015625 
421.7681579589844 -903.4969482421875 -720.9099731445312 
301.8263244628906 -1047.9921875 -725.4556274414062 
183.38571166992188 -1165.98046875 -725.8175048828125 
72.09939575195312 -1255.7899169921875 -723.0410766601562 
-27.20092010498047 -1316.8314208984375 -718.0778198242188 
-110.81959533691406 -1349.3843994140625 -711.6817016601562 
-176.7703857421875 -1354.4007568359375 -704.3004150390625 
-224.96444702148438 -1333.3690185546875 -696.0191650390625 
-256.7978210449219 -1288.1815185546875 -686.550048828125 
-274.6758117675781 -1221.056396484375 -675.2783813476562 
-281.647216796875 -1134.488525390625 -661.407958984375 
-280.8171081542969 -1031.1500244140625 -644.1354370117188 
-274.8585205078125 -913.8529052734375 -622.7529296875 
-265.9808349609375 -785.5966796875 -596.71923828125 
-255.79737854003906 -649.552490234375 -565.761474609375 
-245.03045654296875 -509.0068664550781 -529.9578857421875 
-233.5248260498047 -367.3594970703125 -489.7708740234375 
-220.51681518554688 -228.09886169433594 -446.0283508300781 
-204.99574279785156 -94.65126037597656 -399.836181640625 
-186.044189453125 29.82828712463379 -352.46435546875 
-162.97695922851562 142.58865356445312 -305.2552185058594 
-135.3365936279297 241.3411102294922 -259.5310974121094 
-102.95072937011719 324.3211975097656 -216.495361328125 
-66.06067657470703 390.3421630859375 -177.14654541015625 
-25.394987106323242 438.7981872558594 -142.1944580078125 
17.877113342285156 469.6553649902344 -112.0103530883789 
62.27351760864258 483.4471740722656 -86.6615982055664 
106.12096405029297 481.2329406738281 -65.98615264892578 
147.66439819335938 464.5257873535156 -49.63893508911133 
185.202392578125 435.2215576171875 -37.12559509277344 
217.21217346191406 395.5242919921875 -27.850187301635742 
242.44842529296875 347.869384765625 -21.164358139038086 
260.059814453125 294.8260803222656 -16.413393020629883 
269.705810546875 238.95013427734375 -12.989046096801758 
271.6166687011719 182.62449645996094 -10.381000518798828 
266.5616149902344 127.9643325805664 -8.198322296142578 
255.71507263183594 76.79307556152344 -6.160597324371338 
240.46170043945312 30.645931243896484 -4.089991569519043 
222.22195434570312 -9.23865795135498 -1.898849606513977 
202.36143493652344 -41.969573974609375 0.4664452373981476 
182.15077209472656 -67.06817626953125 3.103914499282837 
162.6894073486328 -84.48188018798828 6.183847904205322 
144.81503295898438 -94.53004455566406 9.920199394226074 
129.08212280273438 -97.80088806152344 14.53734302520752 
115.80098724365234 -95.03372955322266 20.24919319152832 
105.10320281982422 -87.04003143310547 27.239479064941406 
97.0191650390625 -74.66938781738281 35.63911819458008 
91.53260803222656 -58.7869987487793 45.49412536621094 
88.59062957763672 -40.25715255737305 56.724884033203125 
88.0948257446289 -19.932527542114258 69.10973358154297 
89.91114807128906 1.3601093292236328 82.322509765625 
93.90396881103516 22.835067749023438 96.00495910644531 
99.97865295410156 43.7710075378418 109.83541107177734 
108.08984375 63.5472297668457 123.5867919921875 
118.19017028808594 81.67776489257812 137.16885375976562 
130.19058227539062 97.83907318115234 150.62478637695312 
143.9664306640625 111.88201141357422 164.08314514160156 
159.3585205078125 123.80875396728516 177.69081115722656 
176.1522979736328 133.7248992919922 191.53965759277344 
194.05233764648438 141.78448486328125 205.61245727539062 
212.68885803222656 148.13824462890625 219.77407836914062 
231.66485595703125 152.9046173095703 233.82064819335938 
250.60025024414062 156.162109375 247.56588745117188 
269.1361389160156 157.94039916992188 260.88665771484375 
286.88983154296875 158.22579956054688 273.691650390625 
303.4128112792969 156.99781799316406 285.86834716796875 
318.2041015625 154.2626495361328 297.24993896484375 
330.7379150390625 150.0583038330078 307.6081237792969 
340.4799499511719 144.43988037109375 316.6802673339844 
346.937744140625 137.4575653076172 324.21533203125 
349.7555847167969 129.1366424560547 329.9990539550781 
348.8052978515625 119.45547485351562 333.8508605957031 
344.33135986328125 108.32262420654297 335.611083984375 
337.15087890625 95.57682800292969 335.1319580078125 
328.4319152832031 80.99762725830078 332.3111572265625 
318.9987487792969 64.26233673095703 327.1893005371094 
309.1673583984375 44.87553405761719 320.05523681640625 
299.2852478027344 22.258384704589844 311.4573669433594 
289.95074462890625 -3.92995548248291 302.0780029296875 
281.7427978515625 -33.47097396850586 292.5540466308594 
275.12353515625 -65.52921295166016 283.3608703613281 
270.6344909667969 -98.91358947753906 274.7864990234375 
268.97015380859375 -132.4830780029297 266.9541320800781 
270.7029724121094 -165.34249877929688 259.8595275878906 
275.9117736816406 -196.6520538330078 253.42173767089844 
284.0496520996094 -225.33364868164062 247.5348663330078 
294.06243896484375 -250.03497314453125 242.1061553955078 
304.608642578125 -269.3654479980469 237.09263610839844 
314.3192443847656 -282.20703125 232.54159545898438 
322.07501220703125 -287.9466247558594 228.61761474609375 
327.2222595214844 -286.5580139160156 225.61451721191406 
329.6393127441406 -278.53204345703125 223.9882354736328 
329.62255859375 -264.7091369628906 224.39117431640625 
327.64605712890625 -246.09033203125 227.60678100585938 
324.1490173339844 -223.68536376953125 234.36123657226562 
319.4508361816406 -198.38758850097656 245.10006713867188 
313.6823425292969 -170.84982299804688 259.8233947753906 
306.6315612792969 -141.3475341796875 278.02593994140625 
297.66070556640625 -109.67596435546875 298.7319030761719 
285.8793640136719 -75.19933319091797 320.60430908203125 
270.4953308105469 -37.020591735839844 342.10736083984375 
251.13494873046875 5.841830253601074 361.6666259765625 
228.0309600830078 54.238059997558594 377.7913818359375 
202.11422729492188 108.63993072509766 389.15460205078125 
174.9219207763672 168.97413635253906 394.6121520996094 
148.19964599609375 234.55409240722656 393.1895446777344 
123.62384796142578 304.06683349609375 384.1186218261719 
102.95539855957031 375.6192321777344 366.8926086425781 
88.06909942626953 446.8836364746094 341.2647399902344 
80.56385040283203 515.3369140625 307.2573547363281 
81.3553237915039 578.5090942382812 265.2158508300781 
90.46781921386719 634.1768798828125 215.8318328857422 
106.97731018066406 680.51708984375 160.12496948242188 
129.1065673828125 716.222412109375 99.38273620605469 
154.5712432861328 740.55224609375 35.04514694213867 
181.11517333984375 753.3438720703125 -31.39031410217285 
206.707763671875 755.0099487304688 -98.412841796875 
229.2540740966797 746.48828125 -164.54412841796875 
246.50454711914062 729.126220703125 -228.403564453125 
256.415283203125 704.5260009765625 -288.7867126464844 
257.494140625 674.372802734375 -344.7384948730469 
249.0371551513672 640.286376953125 -395.5960998535156 
231.414306640625 603.7362670898438 -440.9839782714844 
205.9981231689453 566.0186767578125 -480.7621765136719 
174.54600524902344 528.279296875 -514.9805297851562 
138.71856689453125 491.54901123046875 -543.8787231445312 
100.05677795410156 456.7487487792969 -567.8953857421875 
60.071720123291016 424.671142578125 -587.6431274414062 
20.26702880859375 395.9764709472656 -603.843017578125 
-17.90434455871582 371.2109375 -617.231201171875 
-53.13825225830078 350.83526611328125 -628.46533203125 
-84.3734359741211 335.23126220703125 -638.066650390625 
-110.85472106933594 324.65863037109375 -646.3883666992188 
-132.1658935546875 319.17254638671875 -653.6002197265625 
-148.2118377685547 318.55010986328125 -659.699462890625 
-159.17408752441406 322.2632751464844 -664.5597534179688 
-165.48968505859375 329.4891052246094 -668.0068359375 
-167.8271942138672 339.1597900390625 -669.9060668945312 
-167.0313262939453 350.07891845703125 -670.2293090820312 
-164.07968139648438 361.071533203125 -669.08349609375 
-160.0496368408203 371.1162109375 -666.7119140625 
-156.0281524658203 379.4466247558594 -663.4728393554688 
-152.9742431640625 385.607666015625 -659.783447265625 
-151.60702514648438 389.4499206542969 -656.0482788085938 
-152.34182739257812 391.0774841308594 -652.6107788085938 
-155.2692108154297 390.7861633300781 -649.7451782226562 
-160.19241333007812 389.0164489746094 -647.6604614257812 
-166.70579528808594 386.2969055175781 -646.4881591796875 
-174.25904846191406 383.15802001953125 -646.2583618164062 
-182.20071411132812 380.0435485839844 -646.8789672851562 
-189.83563232421875 377.24835205078125 -648.1328125 
-196.49620056152344 374.88311767578125 -649.7119140625 
-201.6025848388672 372.8536376953125 -651.2754516601562 
-204.71087646484375 370.8608093261719 -652.5098876953125 
-205.55191040039062 368.4532165527344 -653.1795654296875 
-204.03237915039062 365.1313171386719 -653.1430053710938 
-200.2038116455078 360.4444885253906 -652.3381958007812 
-194.24798583984375 354.0431823730469 -650.7625122070312 
-186.46688842773438 345.6940002441406 -648.4476318359375 
-177.2365264892578 335.26470947265625 -645.419677734375 
-166.93690490722656 322.6995544433594 -641.6694946289062 
-155.89215087890625 308.0071716308594 -637.14404296875 
-144.35678100585938 291.2578125 -631.7228393554688 
-132.55743408203125 272.5751037597656 -625.2069702148438 
-120.74340057373047 252.0973663330078 -617.3638305664062 
-109.20466613769531 229.92294311523438 -607.96923828125 
-98.25868225097656 206.10049438476562 -596.8190307617188 
-88.23053741455078 180.66055297851562 -583.749755859375 
-79.43988800048828 153.63583374023438 -568.65673828125 
-72.17166137695312 125.08164978027344 -551.4963989257812 
-66.6114501953125 95.11831665039062 -532.3079833984375 
-62.7844123840332 63.95369338989258 -511.240234375 
-60.552818298339844 31.865514755249023 -488.5365905761719 
-59.66728973388672 -0.8069806694984436 -464.5019836425781 
-59.818729400634766 -33.6464958190918 -439.4828796386719 
-60.65864181518555 -66.15320587158203 -413.8396301269531 
-61.798831939697266 -97.76066589355469 -387.9228820800781 
-62.82395935058594 -127.86097717285156 -362.0826416015625 
-63.332454681396484 -155.84034729003906 -336.676513671875 
-63.0852165222168 -181.1200714111328 -312.0492248535156 
-62.157596588134766 -203.18507385253906 -288.5016174316406 
-60.655208587646484 -221.59796142578125 -266.2476501464844 
-58.40592956542969 -236.01858520507812 -245.3722686767578 
-55.3040885925293 -246.21876525878906 -225.84317016601562 
-51.45354461669922 -252.06492614746094 -207.56744384765625 
-46.7948112487793 -253.51168823242188 -190.43194580078125 
-41.18943786621094 -250.6485137939453 -174.32286071777344 
-34.67194366455078 -243.73263549804688 -159.14309692382812 
-27.221872329711914 -233.15379333496094 -144.83047485351562 
-18.69745445251465 -219.3853302001953 -131.3565673828125 
-9.264220237731934 -202.95652770996094 -118.69123077392578 
0.3672407865524292 -184.41583251953125 -106.77346801757812 
9.182455062866211 -164.2904052734375 -95.51850891113281 
16.20659065246582 -143.07345581054688 -84.83397674560547 
20.71849250793457 -121.22808074951172 -74.6250991821289 
22.341867446899414 -99.18138885498047 -64.79386901855469 
21.055805206298828 -77.30587005615234 -55.24547576904297 
17.153738021850586 -55.90238571166992 -45.90456771850586 
11.068978309631348 -35.20061111450195 -36.72777557373047 
3.0827016830444336 -15.385180473327637 -27.711397171020508 
-6.645055770874023 3.369380235671997 -18.897602081298828 
-17.614765167236328 20.894426345825195 -10.365006446838379 
-28.753639221191406 37.05250549316406 -2.199580192565918 
-38.672183990478516 51.754207611083984 5.526474475860596 
-46.029693603515625 64.95836639404297 12.748016357421875 
-49.77695083618164 76.65821075439453 19.388917922973633 
-49.29188537597656 86.85848999023438 25.370189666748047 
-44.450321197509766 95.56936645507812 30.64638900756836 
-35.62124252319336 102.82655334472656 35.22172164916992 
-23.574752807617188 108.70819854736328 39.1429443359375 
-9.34782886505127 113.32317352294922 42.518890380859375 
5.910595893859863 116.79337310791016 45.561431884765625 
21.104461669921875 119.2535400390625 48.58486557006836 
35.29966735839844 120.84657287597656 51.940773010253906 
47.761539459228516 121.70387268066406 55.94509506225586 
57.98112106323242 121.93250274658203 60.84956359863281 
65.6976547241211 121.6220474243164 66.84223937988281 
70.89620208740234 120.86146545410156 74.0341567993164 
73.78662109375 119.74496459960938 82.41934967041016 
74.74703979492188 118.3619155883789 91.84487915039062 
74.23365020751953 116.7832260131836 102.03530883789062 
72.70863342285156 115.04927062988281 112.66351318359375 
70.60942077636719 113.15979766845703 123.41883087158203 
68.34862518310547 111.07894897460938 134.04049682617188 
66.33512115478516 108.7629165649414 144.30531311035156 
64.9898452758789 106.1861343383789 153.9887237548828 
64.71336364746094 103.33960723876953 162.8578338623047 
65.80359649658203 100.20939636230469 170.72450256347656 
68.38626861572266 96.75756072998047 177.504638671875 
72.41422271728516 92.92829132080078 183.2142333984375 
77.7299575805664 88.67095947265625 187.91458129882812 
84.13201904296875 83.94910430908203 191.6750946044922 
91.3934326171875 78.7354965209961 194.5799560546875 
99.25853729248047 73.00677490234375 196.74652099609375 
107.45728302001953 66.74166107177734 198.3240509033203 
115.714599609375 59.917362213134766 199.47042846679688 
123.7507553100586 52.49152374267578 200.32424926757812 
131.30770874023438 44.38880157470703 200.99827575683594 
138.18666076660156 35.521888732910156 201.60159301757812 
144.260009765625 25.842126846313477 202.26756286621094 
149.4637908935547 15.394618034362793 203.1529998779297 
153.7723846435547 4.338567733764648 204.38885498046875 
157.17459106445312 -7.098250389099121 206.0275421142578 
159.69454956054688 -18.696256637573242 208.04417419433594 
161.43362426757812 -30.28925323486328 210.36680603027344 
162.57272338867188 -41.768516540527344 212.89356994628906 
163.3347625732422 -53.06393051147461 215.50379943847656 
163.9466552734375 -64.12286376953125 218.06370544433594 
164.61375427246094 -74.91515350341797 220.42564392089844 
165.49156188964844 -85.4522705078125 222.4362030029297 
166.6588134765625 -95.78732299804688 223.94740295410156 
168.11236572265625 -105.99405670166016 224.826904296875 
169.7823944091797 -116.13397979736328 224.97784423828125 
171.55918884277344 -126.23478698730469 224.3480987548828 
173.3238525390625 -136.30535888671875 222.9115753173828 
174.96534729003906 -146.36541748046875 220.65533447265625 
176.3780059814453 -156.4453582763672 217.58335876464844 
177.45477294921875 -166.55615234375 213.71849060058594 
178.0880889892578 -176.677734375 209.12240600585938 
178.179443359375 -186.77944946289062 203.92259216308594 
177.66004943847656 -196.83273315429688 198.30145263671875 
176.5167236328125 -206.8080291748047 192.45550537109375 
174.80165100097656 -216.67567443847656 186.55447387695312 
172.60951232910156 -226.41136169433594 180.71835327148438 
170.0387725830078 -235.99488830566406 175.02784729003906 
167.16209411621094 -245.39248657226562 169.56153869628906 
164.02813720703125 -254.53729248046875 164.42156982421875 
160.69520568847656 -263.33245849609375 159.70364379882812 
157.2618408203125 -271.6725769042969 155.444580078125 
153.87881469726562 -279.4706726074219 151.6163787841797 
150.7362823486328 -286.6918029785156 148.15162658691406 
148.0102081298828 -293.3738708496094 144.95458984375 
145.80226135253906 -299.6037292480469 141.91818237304688 
144.12301635742188 -305.4529113769531 138.95968627929688 
142.916259765625 -310.931640625 136.04148864746094 
142.0983428955078 -316.0010681152344 133.1632080078125 
141.59767150878906 -320.6094665527344 130.3437957763672 
141.37623596191406 -324.7126770019531 127.61589813232422 
141.42071533203125 -328.2814636230469 125.0318832397461 
141.71278381347656 -331.2989807128906 122.6570053100586 
142.20681762695312 -333.76068115234375 120.54840850830078 
142.83828735351562 -335.686767578125 118.74462890625 
143.54559326171875 -337.1241149902344 117.27005004882812 
144.26824951171875 -338.123779296875 116.13341522216797 
144.92764282226562 -338.7164001464844 115.30487823486328 
145.431396484375 -338.9154052734375 114.70096588134766 
145.6990966796875 -338.7438659667969 114.20382690429688 
145.67971801757812 -338.25494384765625 113.67829895019531 
145.35951232910156 -337.5358581542969 112.97489166259766 
144.764892578125 -336.69622802734375 111.95026397705078 
143.9514617919922 -335.84832763671875 110.49360656738281 
142.98133850097656 -335.0905456542969 108.54290771484375 
141.8998565673828 -334.48797607421875 106.10670471191406 
140.72218322753906 -334.0476989746094 103.2677230834961 
139.4357147216797 -333.7055969238281 100.14034271240234 
138.01356506347656 -333.3360900878906 96.82196807861328 
136.42971801757812 -332.78265380859375 93.37974548339844 
134.66787719726562 -331.9125061035156 89.85128021240234 
132.71502685546875 -330.6716003417969 86.24066162109375 
130.54637145996094 -329.0719909667969 82.52589416503906 
128.1263885498047 -327.11224365234375 78.67072296142578 
125.44602966308594 -324.73419189453125 74.63397979736328 
122.562255859375 -321.8515319824219 70.39693450927734 
119.5728530883789 -318.3866271972656 65.98767852783203 
116.54483032226562 -314.291748046875 61.457679748535156 
113.49524688720703 -309.5733642578125 56.83168411254883 
110.44684600830078 -304.30010986328125 52.08826446533203 
107.47186279296875 -298.5806884765625 47.17257308959961 
104.66614532470703 -292.53131103515625 42.009613037109375 
102.09718322753906 -286.25579833984375 36.52639389038086 
99.78433227539062 -279.8504943847656 30.681955337524414 
97.70004272460938 -273.41668701171875 24.47235107421875 
95.75440216064453 -267.04833984375 17.924219131469727 
93.7761459350586 -260.8082275390625 11.112772941589355 
91.54413604736328 -254.732421875 4.186481952667236 
88.8642349243164 -248.84735107421875 -2.6425719261169434 
85.61756896972656 -243.1512908935547 -9.155268669128418 
81.75300598144531 -237.59352111816406 -15.20251178741455 
77.25948333740234 -232.11061096191406 -20.752132415771484 
72.15669250488281 -226.68870544433594 -25.877655029296875 
66.5164566040039 -221.3815460205078 -30.711437225341797 
60.4791374206543 -216.27001953125 -35.40392303466797 
54.23219299316406 -211.41566467285156 -40.112220764160156 
47.980281829833984 -206.8572540283203 -44.99864196777344 
41.946109771728516 -202.62173461914062 -50.209861755371094 
36.37578201293945 -198.70481872558594 -55.85292053222656 
31.506643295288086 -195.05984497070312 -61.98262023925781 
27.522544860839844 -191.6411590576172 -68.58843231201172 
24.53803825378418 -188.45213317871094 -75.58761596679688 
22.598243713378906 -185.52989196777344 -82.83810424804688 
21.667739868164062 -182.8953857421875 -90.17610931396484 
21.62093162536621 -180.53892517089844 -97.46007537841797 
22.254850387573242 -178.44480895996094 -104.5733871459961 
23.320154190063477 -176.60548400878906 -111.3885498046875 
24.543888092041016 -174.99452209472656 -117.75362396240234 
25.626678466796875 -173.53170776367188 -123.53025817871094 
26.24128532409668 -172.0929718017578 -128.65184020996094 
26.057058334350586 -170.5424041748047 -133.13821411132812 
24.782546997070312 -168.75205993652344 -137.05419921875 
22.22180938720703 -166.62417602539062 -140.47608947753906 
18.323822021484375 -164.1117401123047 -143.4845428466797 
13.181879997253418 -161.2206573486328 -146.15377807617188 
6.977807521820068 -157.99920654296875 -148.5546875 
-0.06509952992200851 -154.52427673339844 -150.7771759033203 
-7.672059059143066 -150.88543701171875 -152.9231719970703 
-15.508851051330566 -147.16632080078125 -155.06690979003906 
-23.234949111938477 -143.4307861328125 -157.24212646484375 
-30.564905166625977 -139.72052001953125 -159.47543334960938 
-37.28121566772461 -136.0558319091797 -161.81048583984375 
-43.22631072998047 -132.43431091308594 -164.29257202148438 
-48.30333709716797 -128.839599609375 -166.95179748535156 
-52.466407775878906 -125.26209259033203 -169.8187713623047 
-55.7012825012207 -121.71527099609375 -172.94955444335938 
-58.02773666381836 -118.2304458618164 -176.41770935058594 
-59.52117156982422 -114.83241271972656 -180.26937866210938 
-60.32828140258789 -111.5236587524414 -184.48028564453125 
-60.663856506347656 -108.29216766357422 -188.9481964111328 
-60.77785110473633 -105.13240051269531 -193.51429748535156 
-60.90275192260742 -102.06036376953125 -197.9962921142578 
-61.22272872924805 -99.11001586914062 -202.22698974609375 
-61.8797607421875 -96.31669616699219 -206.0900421142578 
-62.982791900634766 -93.70264434814453 -209.53634643554688 
-64.59574890136719 -91.27298736572266 -212.57476806640625 
-66.7274169921875 -89.02165985107422 -215.24588012695312 
-69.33916473388672 -86.94148254394531 -217.58497619628906 
-72.35115814208984 -85.03252410888672 -219.5971221923828 
-75.65203857421875 -83.2975082397461 -221.26637268066406 
-79.1329116821289 -81.72562408447266 -222.59962463378906 
-82.70626831054688 -80.2906265258789 -223.6802215576172 
-86.27547454833984 -78.97695922851562 -224.66827392578125 
-89.70207214355469 -77.80506134033203 -225.74514770507812 
-92.81428527832031 -76.82637023925781 -227.07237243652344 
-95.44700622558594 -76.0970230102539 -228.77735900878906 
-97.48841094970703 -75.644775390625 -230.93052673339844 
-98.91010284423828 -75.4412841796875 -233.51513671875 
-99.76029968261719 -75.39701843261719 -236.42921447753906 
-100.12285614013672 -75.3803939819336 -239.53192138671875 
-100.07508087158203 -75.2536392211914 -242.68966674804688 
-99.67684936523438 -74.90931701660156 -245.78224182128906 
-98.99418640136719 -74.27696990966797 -248.68954467773438 
-98.12291717529297 -73.30449676513672 -251.285888671875 
-97.16844177246094 -71.94989776611328 -253.4437255859375 
-96.20211791992188 -70.19131469726562 -255.04440307617188 
-95.25782775878906 -68.03497314453125 -255.99801635742188 
-94.37237548828125 -65.51068115234375 -256.2618713378906 
-93.61463165283203 -62.6536979675293 -255.8257598876953 
-93.06817626953125 -59.473758697509766 -254.66818237304688 
-92.79444122314453 -55.93904113769531 -252.73944091796875 
-92.81481170654297 -52.005577087402344 -249.99046325683594 
-93.10413360595703 -47.6669807434082 -246.408203125 
-93.5855712890625 -42.97843551635742 -242.03887939453125 
-94.1396713256836 -38.041297912597656 -236.99444580078125 
-94.61363983154297 -32.95284652709961 -231.43431091308594 
-94.82776641845703 -27.7523250579834 -225.54177856445312 
-94.61064147949219 -22.413183212280273 -219.4931640625 
-93.853759765625 -16.88600730895996 -213.4171905517578 
-92.53834533691406 -11.157814979553223 -207.37583923339844 
-90.71761322021484 -5.28692102432251 -201.36190795898438 
-88.47633361816406 0.6170568466186523 -195.30682373046875 
-85.89582061767578 6.445590496063232 -189.12435913085938 
-83.04438018798828 12.134330749511719 -182.75904846191406 
-80.00345611572266 17.67594337463379 -176.1903076171875 
-76.90507507324219 23.095909118652344 -169.41207885742188 
-73.92993927001953 28.418561935424805 -162.4268798828125 
-71.25320434570312 33.65208435058594 -155.26019287109375 
-68.97660064697266 38.78157043457031 -147.97341918945312 
-67.09636688232422 43.75577926635742 -140.65200805664062 
-65.52471923828125 48.48031997680664 -133.3798370361328 
-64.13114929199219 52.833213806152344 -126.22715759277344 
-62.771236419677734 56.695194244384766 -119.24593353271484 
-61.3094596862793 59.96855926513672 -112.46134185791016 
-59.636558532714844 62.574974060058594 -105.86985778808594 
-57.67989730834961 64.4664535522461 -99.4419937133789 
-55.41990661621094 65.66505432128906 -93.13138580322266 
-52.90636444091797 66.2796630859375 -86.89615631103516 
-50.2514762878418 66.46927642822266 -80.71220397949219 
-47.600791931152344 66.39177703857422 -74.5701904296875 
-45.109764099121094 66.17362213134766 -68.47281646728516 
-42.93735122680664 65.89765930175781 -62.430049896240234 
-41.22258758544922 65.60823059082031 -56.44767761230469 
-40.02649688720703 65.33881378173828 -50.52618408203125 
-39.30257797241211 65.13455200195312 -44.671287536621094 
-38.93452072143555 65.04014587402344 -38.910484313964844 
-38.78139877319336 65.06745910644531 -33.31835174560547 
-38.70457458496094 65.1796646118164 -28.0093936920166 
-38.59372329711914 65.3108901977539 -23.066728591918945 
-38.3634033203125 65.40470886230469 -18.475984573364258 
-37.935935974121094 65.4414291381836 -14.141106605529785 
-37.26826095581055 65.44766998291016 -9.944563865661621 
-36.384342193603516 65.49256896972656 -5.770158767700195 
-35.34808349609375 65.66959381103516 -1.5015031099319458 
-34.212825775146484 66.06366729736328 2.9535319805145264 
-33.00304412841797 66.71380615234375 7.63709831237793 
-31.722850799560547 67.59908294677734 12.541644096374512 
-30.367923736572266 68.66142272949219 17.622886657714844 
-28.93603515625 69.83811950683594 22.819957733154297 
-27.442869186401367 71.07527160644531 28.06917381286621 
-25.9296932220459 72.32866668701172 33.298431396484375 
-24.44438934326172 73.5631103515625 38.42376708984375 
-23.01885414123535 74.75567626953125 43.36959457397461 
-21.666507720947266 75.91603088378906 48.09212875366211 
-20.388185501098633 77.10100555419922 52.578426361083984 
-19.176668167114258 78.38604736328125 56.83195877075195 
-18.017032623291016 79.8194808959961 60.862152099609375 
-16.87566375732422 81.41565704345703 64.68470764160156 
-15.685818672180176 83.18739318847656 68.33565521240234 
-14.355615615844727 85.16669464111328 71.87406921386719 
-12.796463012695312 87.388916015625 75.34580993652344 
-10.94815731048584 89.85743713378906 78.73538970947266 
-8.794306755065918 92.5206298828125 81.94745635986328 
-6.360538005828857 95.29487609863281 84.82481384277344 
-3.694817066192627 98.1129150390625 87.1989974975586 
-0.8578453660011292 100.94074249267578 88.94288635253906 
2.0577876567840576 103.7567138671875 89.98470306396484 
4.900514602661133 106.51448059082031 90.291748046875 
7.459357261657715 109.12151336669922 89.8582763671875 
9.499198913574219 111.46705627441406 88.7138671875 
10.815839767456055 113.47333526611328 86.9356460571289 
11.280346870422363 115.10868835449219 84.63818359375 
10.842560768127441 116.3490219116211 81.94549560546875 
9.504356384277344 117.13847351074219 78.97123718261719 
7.309889793395996 117.39261627197266 75.81702423095703 
4.370921611785889 117.031005859375 72.57350158691406 
0.8813766837120056 116.0128173828125 69.31422424316406 
-2.9220030307769775 114.35429382324219 66.09458923339844 
-6.811864376068115 112.10813903808594 62.96790313720703 
-10.574617385864258 109.32416534423828 60.010292053222656 
-13.98677921295166 106.035400390625 57.321041107177734 
-16.810632705688477 102.27947235107422 54.98324966430664 
-18.822751998901367 98.13067626953125 53.02980422973633 
-19.86644172668457 93.71730041503906 51.451271057128906 
-19.89667320251465 89.21305847167969 50.21030044555664 
-18.988182067871094 84.81098937988281 49.2341194152832 
-17.30935287475586 80.69141387939453 48.41733169555664 
-15.083148956298828 76.99420928955078 47.64800262451172 
-12.549163818359375 73.81497955322266 46.829532623291016 
-9.933594703674316 71.2243423461914 45.89417266845703 
-7.438175201416016 69.27902221679688 44.80893325805664 
-5.245899200439453 68.01293182373047 43.57438278198242 
-3.516087532043457 67.4247817993164 42.24746322631836 
-2.3653907775878906 67.46675872802734 40.97184371948242 
-1.86217200756073 68.03334045410156 39.946128845214844 
-2.022596597671509 68.95964813232422 39.34877395629883 
-2.791715145111084 70.0358657836914 39.302398681640625 
-4.0452094078063965 71.03690338134766 39.879180908203125 
-5.624722003936768 71.75922393798828 41.10637283325195 
-7.371890544891357 72.04882049560547 42.96775436401367 
-9.141164779663086 71.81398010253906 45.402992248535156 
-10.801856994628906 71.02870178222656 48.30939483642578 
-12.246724128723145 69.726806640625 51.556304931640625 
-13.409420013427734 67.99175262451172 54.993038177490234 
-14.279520988464355 65.955078125 58.44440841674805 
-14.895391464233398 63.78464889526367 61.72654342651367 
-15.310165405273438 61.64296340942383 64.67948913574219 
-15.567495346069336 59.646156311035156 67.18962097167969 
-15.714024543762207 57.855201721191406 69.20991516113281 
-15.819318771362305 56.2917366027832 70.77333068847656 
-15.964512825012207 54.95444869995117 71.97478485107422 
-16.2026309967041 53.82276153564453 72.939208984375 
-16.528215408325195 52.8603401184082 73.79987335205078 
-16.881725311279297 52.026939392089844 74.6785659790039 
-17.17992401123047 51.280303955078125 75.66596984863281 
-17.350759506225586 50.565189361572266 76.79821014404297 
-17.353994369506836 49.81329345703125 78.02424621582031 
-17.17838478088379 48.96910095214844 79.19691467285156 
-16.8292293548584 48.01971435546875 80.11468505859375 
-16.325254440307617 46.98602294921875 80.58165740966797 
-15.699989318847656 45.88348388671875 80.4502944946289 
-14.994012832641602 44.70603561401367 79.65238189697266 
-14.246862411499023 43.44747543334961 78.22339630126953 
-13.504606246948242 42.12112045288086 76.31082153320312 
-12.822108268737793 40.75035095214844 74.15876770019531 
-12.240567207336426 39.35527038574219 72.0692138671875 
-11.779001235961914 37.95632553100586 70.3487777709961 
-11.457809448242188 36.576175689697266 69.25395202636719 
-11.30729866027832 35.23332595825195 68.94628143310547 
-11.34193229675293 33.94625473022461 69.47359466552734 
-11.5374755859375 32.744911193847656 70.78193664550781 
-11.833259582519531 31.667062759399414 72.73351287841797 
-12.150700569152832 30.746511459350586 75.12222290039062 
-12.417890548706055 30.009246826171875 77.71336364746094 
-12.583643913269043 29.466379165649414 80.30513763427734 
-12.606792449951172 29.104211807250977 82.76912689208984 
-12.440290451049805 28.890737533569336 85.04045867919922 
-12.034157752990723 28.791147232055664 87.08281707763672 
-11.355511665344238 28.77618980407715 88.87455749511719 
-10.416656494140625 28.828393936157227 90.41739654541016 
-9.291848182678223 28.949613571166992 91.74779510498047 
-8.104874610900879 29.163936614990234 92.94293212890625 
-6.997428894042969 29.508296966552734 94.10652923583984 
-6.102762222290039 30.01137351989746 95.33108520507812 
-5.5351057052612305 30.67218017578125 96.65968322753906 
-5.383419513702393 31.4515438079834 98.07613372802734 
-5.69849967956543 32.288673400878906 99.53956604003906 
-6.479114532470703 33.128990173339844 101.0265884399414 
-7.668755531311035 33.93779373168945 102.52142333984375 
-9.172657012939453 34.71174240112305 103.98326873779297 
-10.886566162109375 35.492435455322266 105.36714172363281 
-12.716028213500977 36.358009338378906 106.66374206542969 
-14.57908821105957 37.4064826965332 107.89723205566406 
-16.394636154174805 38.752830505371094 109.1215591430664 
-18.070568084716797 40.5189208984375 110.43028259277344 
-19.518817901611328 42.81209945678711 111.94087982177734 
-20.683900833129883 45.71774673461914 113.77989959716797 
-21.548927307128906 49.29800033569336 116.08935546875 
-22.12287139892578 53.583675384521484 119.00658416748047 
-22.42578125 58.57572555541992 122.60400390625 
-22.485166549682617 64.24034118652344 126.8427734375 
-22.349475860595703 70.48162078857422 131.5857391357422 
-22.091604232788086 77.13471221923828 136.64703369140625 
-21.781572341918945 83.99793243408203 141.82273864746094 
-21.448163986206055 90.8724365234375 146.8963165283203 
-21.06231117248535 97.587890625 151.64483642578125 
-20.55482292175293 104.00492095947266 155.8462371826172 
-19.848485946655273 110.00511932373047 159.30120849609375 
-18.88184928894043 115.49182891845703 161.8732452392578 
-17.616107940673828 120.3895263671875 163.49440002441406 
-16.03579330444336 124.6233139038086 164.13827514648438 
-14.157880783081055 128.10202026367188 163.81524658203125 
-12.037322044372559 130.72164916992188 162.58197021484375 
-9.7558012008667 132.3734130859375 160.53126525878906 
-7.395964622497559 132.95150756835938 157.78077697753906 
-5.019429683685303 132.36871337890625 154.48069763183594 
-2.668816328048706 130.58009338378906 150.8166046142578 
-0.38023433089256287 127.6032943725586 146.9814453125 
1.8027831315994263 123.51605224609375 143.1315460205078 
3.810647964477539 118.43794250488281 139.36607360839844 
5.545791149139404 112.5263671875 135.74066162109375 
6.899711608886719 105.9776611328125 132.28860473632812 
7.764880180358887 99.00591278076172 129.0269775390625 
8.04065990447998 91.80859375 125.95801544189453 
7.645769119262695 84.54378509521484 123.07958984375 
6.544633865356445 77.33771514892578 120.3907470703125 
4.7695794105529785 70.31575012207031 117.8750228881836 
2.4010794162750244 63.623329162597656 115.48121643066406 
-0.46307507157325745 57.427085876464844 113.12840270996094 
-3.6941750049591064 51.90598678588867 110.73126220703125 
-7.111063480377197 47.236419677734375 108.22224426269531 
-10.51427173614502 43.584529876708984 105.56063079833984 
-13.759385108947754 41.09651565551758 102.73831176757812 
-16.799152374267578 39.855045318603516 99.77305603027344 
-19.664958953857422 39.82223892211914 96.68412780761719 
-22.429283142089844 40.833988189697266 93.4771957397461 
-25.180959701538086 42.656585693359375 90.15318298339844 
-27.991777420043945 45.04269790649414 86.73698425292969 
-30.88277816772461 47.74919891357422 83.30243682861328 
-33.828643798828125 50.53953552246094 79.96739959716797 
-36.78327178955078 53.19218444824219 76.86563110351562 
-39.67860794067383 55.518028259277344 74.10926055908203 
-42.40376663208008 57.36833953857422 71.7573013305664 
-44.812477111816406 58.62361526489258 69.80270385742188 
-46.750186920166016 59.19809341430664 68.17711639404297 
-48.06692123413086 59.050113677978516 66.78147888183594 
-48.63649368286133 58.16105651855469 65.53150177001953 
-48.397117614746094 56.53293991088867 64.37226867675781 
-47.3810920715332 54.233604431152344 63.247562408447266 
-45.702579498291016 51.42047119140625 62.07030487060547 
-43.50310134887695 48.30854034423828 60.73103332519531 
-40.893558502197266 45.122371673583984 59.12389373779297 
-37.93955612182617 42.06676483154297 57.16453552246094 
-34.689815521240234 39.31159210205078 54.80259323120117 
-31.21449851989746 36.967960357666016 52.034400939941406 
-27.630084991455078 35.060585021972656 48.906455993652344 
-24.10976219177246 33.529335021972656 45.50235366821289 
-20.877119064331055 32.26953125 41.93746566772461 
-18.18492317199707 31.18771743774414 38.377681732177734 
-16.296918869018555 30.24027442932129 35.05167770385742 
-15.467733383178711 29.436037063598633 32.21445083618164 
-15.9042387008667 28.809051513671875 30.071916580200195 
-17.719940185546875 28.385019302368164 28.738868713378906 
-20.90619659423828 28.167512893676758 28.249773025512695 
-25.33258056640625 28.142026901245117 28.566368103027344 
-30.766653060913086 28.276386260986328 29.58118438720703 
-36.8927001953125 28.519729614257812 31.145946502685547 
-43.325950622558594 28.804304122924805 33.106605529785156 
-49.625160217285156 29.039794921875 35.32856750488281 
-55.31792449951172 29.11922836303711 37.69721221923828 
-59.96733474731445 28.954866409301758 40.09139633178711 
-63.25621795654297 28.509756088256836 42.373313903808594 
-65.02767944335938 27.797510147094727 44.41057586669922 
-65.2780990600586 26.8671817779541 46.101715087890625 
-64.13369750976562 25.780981063842773 47.38976287841797 
-61.81862258911133 24.59103012084961 48.25853729248047 
-58.60908508300781 23.338632583618164 48.72602462768555 
-54.79899215698242 22.052173614501953 48.855369567871094 
-50.70569610595703 20.721256256103516 48.756439208984375 
-46.66780471801758 19.29835319519043 48.5521354675293 
-42.9952507019043 17.74416160583496 48.342926025390625 
-39.928123474121094 16.06452178955078 48.21244812011719 
-37.637901306152344 14.327126502990723 48.25743103027344 
-36.225826263427734 12.666507720947266 48.58155822753906 
-35.70659255981445 11.246965408325195 49.25006103515625 
-36.02352523803711 10.199756622314453 50.260047912597656 
-37.090641021728516 9.600814819335938 51.542930603027344 
-38.8115119934082 9.490653991699219 52.98551559448242 
-41.07793045043945 9.893068313598633 54.45326614379883 
-43.780662536621094 10.818103790283203 55.80297088623047 
