-3.2805278301239014 -2.109483480453491 -10.77987003326416 
-1.758385181427002 -2.3969502449035645 -10.304474830627441 
-0.271316260099411 -2.6413984298706055 -9.817459106445312 
1.110883116722107 -2.7628793716430664 -9.23934555053711 
2.2982611656188965 -2.7104439735412598 -8.529247283935547 
3.2152252197265625 -2.486375093460083 -7.699820518493652 
3.8259668350219727 -2.114715576171875 -6.7876200675964355 
4.150285243988037 -1.6140156984329224 -5.831201553344727 
4.255138874053955 -0.9988415241241455 -4.880433559417725 
4.236028671264648 -0.2881770730018616 -3.98827862739563 
4.212502956390381 0.4803364872932434 -3.1767282485961914 
4.31118106842041 1.2412152290344238 -2.4304354190826416 
4.622941017150879 1.9219163656234741 -1.724660038948059 
5.170074462890625 2.4803659915924072 -1.0505144596099854 
5.9173808097839355 2.9122090339660645 -0.42716553807258606 
6.806598663330078 3.222141742706299 0.09683621674776077 
7.771239280700684 3.406796932220459 0.4691459536552429 
8.735018730163574 3.4686832427978516 0.6745647192001343 
9.61999225616455 3.4298975467681885 0.7454746961593628 
10.36917781829834 3.326230049133301 0.7341147661209106 
10.957185745239258 3.2081387042999268 0.6839402914047241 
11.369162559509277 3.154360771179199 0.6277486681938171 
11.57757568359375 3.2575438022613525 0.6079192757606506 
11.550873756408691 3.581836462020874 0.6855640411376953 
11.276515007019043 4.1392436027526855 0.9122756123542786 
10.760766983032227 4.8890862464904785 1.294747233390808 
10.01412296295166 5.732532978057861 1.7956321239471436 
9.048370361328125 6.528816223144531 2.3582468032836914 
7.870756149291992 7.1697306632995605 2.9256553649902344 
6.467406272888184 7.645170211791992 3.4530484676361084 
4.816189765930176 8.010132789611816 3.9144039154052734 
2.939474582672119 8.309700965881348 4.29929780960083 
0.9274919629096985 8.571045875549316 4.614178657531738 
-1.0868339538574219 8.826120376586914 4.889312744140625 
-2.946307897567749 9.087472915649414 5.160989761352539 
-4.505480766296387 9.326748847961426 5.436205863952637 
-5.705787181854248 9.507469177246094 5.688596248626709 
-6.593235015869141 9.615355491638184 5.888077259063721 
-7.246357440948486 9.652358055114746 6.026536464691162 
-7.723539352416992 9.640769958496094 6.127157688140869 
-8.075089454650879 9.63907527923584 6.233340263366699 
-8.34052848815918 9.709840774536133 6.370262145996094 
-8.513303756713867 9.855400085449219 6.5108842849731445 
-8.54867935180664 10.013786315917969 6.585572242736816 
-8.426178932189941 10.122591018676758 6.52602481842041 
-8.18721866607666 10.151416778564453 6.315549850463867 
-7.902319431304932 10.066794395446777 6.0171942710876465 
-7.619968891143799 9.815683364868164 5.7451677322387695 
-7.359344959259033 9.376019477844238 5.592867851257324 
-7.130825996398926 8.79286003112793 5.582267761230469 
-6.940107822418213 8.139079093933105 5.6719889640808105 
-6.784789085388184 7.478156566619873 5.814702987670898 
-6.662839889526367 6.885566711425781 6.018138408660889 
-6.571308135986328 6.451340198516846 6.338493824005127 
-6.503454208374023 6.227481365203857 6.801154136657715 
-6.470527172088623 6.201630592346191 7.338319301605225 
-6.506981372833252 6.331784248352051 7.805868625640869 
-6.6322150230407715 6.583036422729492 8.058165550231934 
-6.822280406951904 6.933986663818359 8.032085418701172 
-7.026121139526367 7.375585556030273 7.788538455963135 
-7.198225021362305 7.9055256843566895 7.475039482116699 
-7.319976806640625 8.512210845947266 7.227247714996338 
-7.4089250564575195 9.169172286987305 7.080704212188721 
-7.514534950256348 9.842513084411621 6.968070983886719 
-7.6880927085876465 10.497986793518066 6.806319713592529 
-7.937589168548584 11.103943824768066 6.584560871124268 
-8.207958221435547 11.625874519348145 6.361959457397461 
-8.3975830078125 12.018757820129395 6.189589500427246 
-8.383221626281738 12.227628707885742 6.049041748046875 
-8.044333457946777 12.195326805114746 5.871310234069824 
-7.300612449645996 11.879593849182129 5.615155220031738 
-6.155642986297607 11.285313606262207 5.32839298248291 
-4.708726406097412 10.481792449951172 5.13726806640625 
-3.111253261566162 9.570600509643555 5.175045967102051 
-1.5070042610168457 8.646685600280762 5.501681327819824 
-0.004888268653303385 7.804565906524658 6.072590351104736 
1.3359631299972534 7.143292427062988 6.773697853088379 
2.518670082092285 6.723206043243408 7.486426830291748 
3.574723482131958 6.533212661743164 8.14262580871582 
4.506437301635742 6.514622211456299 8.732287406921387 
5.277311325073242 6.60621452331543 9.253568649291992 
5.840514659881592 6.778909683227539 9.665914535522461 
6.159195899963379 7.041476726531982 9.89989185333252 
6.220860004425049 7.398204803466797 9.90200424194336 
6.05043888092041 7.784843921661377 9.667503356933594 
5.709711074829102 8.063430786132812 9.232449531555176 
5.288991451263428 8.114121437072754 8.642752647399902 
4.88746976852417 7.933276176452637 7.943420886993408 
4.58337926864624 7.627021789550781 7.1834001541137695 
4.425466537475586 7.320572853088379 6.408991813659668 
4.438226699829102 7.085805892944336 5.644930362701416 
4.615905284881592 6.929283618927002 4.873881816864014 
4.925907611846924 6.809731483459473 4.042807579040527 
5.331220626831055 6.670407295227051 3.114957094192505 
5.804354190826416 6.481473922729492 2.1205334663391113 
6.3288140296936035 6.250674724578857 1.1417558193206787 
6.910801410675049 5.99511194229126 0.24398048222064972 
7.587520122528076 5.732676029205322 -0.5694804787635803 
8.402450561523438 5.501363277435303 -1.3325670957565308 
9.371187210083008 5.3460588455200195 -2.060929298400879 
10.472509384155273 5.281343936920166 -2.7321298122406006 
11.65234088897705 5.294682502746582 -3.3064517974853516 
12.837759017944336 5.376670837402344 -3.751772165298462 
13.978896141052246 5.5217108726501465 -4.067075252532959 
15.078719139099121 5.6980462074279785 -4.3035407066345215 
16.150230407714844 5.833869457244873 -4.549762725830078 
17.142436981201172 5.849515438079834 -4.873957633972168 
17.94595718383789 5.697999954223633 -5.286628723144531 
18.48850440979004 5.37012243270874 -5.765078544616699 
18.805322647094727 4.88596773147583 -6.2844085693359375 
19.01597785949707 4.288941383361816 -6.821717262268066 
19.25467300415039 3.6242995262145996 -7.364933967590332 
19.604867935180664 2.9223849773406982 -7.9174485206604 
20.061769485473633 2.2207350730895996 -8.483139991760254 
20.556739807128906 1.5890992879867554 -9.056533813476562 
21.026100158691406 1.107305884361267 -9.618907928466797 
21.45504379272461 0.8345493674278259 -10.129764556884766 
21.866060256958008 0.8157591819763184 -10.532114028930664 
22.284807205200195 1.0753757953643799 -10.7816801071167 
22.729110717773438 1.5718743801116943 -10.87566089630127 
23.214664459228516 2.1941325664520264 -10.853059768676758 
23.746065139770508 2.8333492279052734 -10.766429901123047 
24.304080963134766 3.4383418560028076 -10.644477844238281 
24.85877227783203 3.9892971515655518 -10.47235107421875 
25.399791717529297 4.460644721984863 -10.211658477783203 
25.942365646362305 4.847710609436035 -9.847447395324707 
26.505908966064453 5.195558071136475 -9.420145988464355 
27.101037979125977 5.5644097328186035 -9.01697826385498 
27.723621368408203 5.98457145690918 -8.730267524719238 
28.34586524963379 6.447922706604004 -8.612667083740234 
28.920846939086914 6.912354469299316 -8.669312477111816 
29.38811492919922 7.306976795196533 -8.892607688903809 
29.665668487548828 7.547295570373535 -9.297460556030273 
29.660385131835938 7.559415340423584 -9.924300193786621 
29.30901527404785 7.306986331939697 -10.805269241333008 
28.61092758178711 6.803515434265137 -11.903857231140137 
27.619956970214844 6.105632781982422 -13.080180168151855 
26.405179977416992 5.300041675567627 -14.140401840209961 
25.023494720458984 4.4741973876953125 -14.94739818572998 
23.519678115844727 3.6863198280334473 -15.495463371276855 
21.928781509399414 2.974680185317993 -15.877470016479492 
20.274534225463867 2.373420000076294 -16.180828094482422 
18.570693969726562 1.8983358144760132 -16.41239356994629 
16.821395874023438 1.5451031923294067 -16.511798858642578 
15.024650573730469 1.3092044591903687 -16.432090759277344 
13.181264877319336 1.180569052696228 -16.212308883666992 
11.295775413513184 1.1240204572677612 -15.968013763427734 
9.363842010498047 1.092943549156189 -15.79557991027832 
7.364683151245117 1.0654345750808716 -15.686041831970215 
5.2758469581604 1.048285722732544 -15.533178329467773 
3.0891306400299072 1.0396443605422974 -15.213078498840332 
0.7986443638801575 1.0090689659118652 -14.677452087402344 
-1.6154577732086182 0.9213817715644836 -14.00273609161377 
-4.16492223739624 0.755479633808136 -13.348129272460938 
-6.8115386962890625 0.49528762698173523 -12.853155136108398 
-9.466961860656738 0.13987357914447784 -12.556448936462402 
-12.038524627685547 -0.2655286490917206 -12.399068832397461 
-14.466514587402344 -0.6450256109237671 -12.310575485229492 
-16.734119415283203 -0.9322000741958618 -12.288481712341309 
-18.86334800720215 -1.070080280303955 -12.384395599365234 
-20.885868072509766 -1.0218315124511719 -12.6198091506958 
-22.802749633789062 -0.8146302103996277 -12.930068016052246 
-24.585054397583008 -0.529864490032196 -13.19575023651123 
-26.201231002807617 -0.23629280924797058 -13.32381820678711 
-27.615840911865234 0.040193136781454086 -13.302411079406738 
-28.7811222076416 0.2868960201740265 -13.201489448547363 
-29.663774490356445 0.47248488664627075 -13.127683639526367 
-30.270614624023438 0.5474379062652588 -13.138164520263672 
-30.636043548583984 0.4578728675842285 -13.172301292419434 
-30.81011199951172 0.16548286378383636 -13.087733268737793 
-30.873443603515625 -0.3041883409023285 -12.769490242004395 
-30.94416618347168 -0.8223546147346497 -12.202783584594727 
-31.1435489654541 -1.1999938488006592 -11.462899208068848 
-31.52440071105957 -1.2800694704055786 -10.647988319396973 
-32.024147033691406 -0.9786344170570374 -9.815282821655273 
-32.50325012207031 -0.2728406488895416 -8.970553398132324 
-32.83109664916992 0.7939087748527527 -8.097792625427246 
-32.9395751953125 2.0964996814727783 -7.187787055969238 
-32.81636047363281 3.464601993560791 -6.252891540527344 
-32.472476959228516 4.759012222290039 -5.325616359710693 
-31.930591583251953 5.911895751953125 -4.443548679351807 
-31.228242874145508 6.903439521789551 -3.6364095211029053 
-30.399084091186523 7.714936256408691 -2.922778844833374 
-29.440959930419922 8.305081367492676 -2.315816640853882 
-28.316072463989258 8.626396179199219 -1.8307985067367554 
-26.988561630249023 8.661521911621094 -1.4784539937973022 
-25.45553207397461 8.445611000061035 -1.239030122756958 
-23.73525619506836 8.049983978271484 -1.048312783241272 
-21.837688446044922 7.538909435272217 -0.8285053968429565 
-19.7796573638916 6.961682319641113 -0.5374991297721863 
-17.643156051635742 6.398802757263184 -0.19003073871135712 
-15.583845138549805 5.9781904220581055 0.16161492466926575 
-13.72889232635498 5.804594993591309 0.47313740849494934 
-12.067488670349121 5.885779857635498 0.7467444539070129 
-10.477764129638672 6.152684211730957 1.029288649559021 
-8.85047435760498 6.525612831115723 1.370457410812378 
-7.165200233459473 6.930689334869385 1.784023642539978 
-5.477084636688232 7.282770156860352 2.2475690841674805 
-3.8686957359313965 7.499456405639648 2.7269046306610107 
-2.4139485359191895 7.537752628326416 3.199172019958496 
-1.1633789539337158 7.41002082824707 3.663055658340454 
-0.13416992127895355 7.164723873138428 4.132678985595703 
0.7038655877113342 6.834991455078125 4.620620250701904 
1.4311537742614746 6.390264987945557 5.116660118103027 
2.147073268890381 5.75131893157959 5.580593109130859 
2.8941128253936768 4.870513916015625 5.964118480682373 
3.5957562923431396 3.791785955429077 6.233428478240967 
4.093955993652344 2.6238620281219482 6.372231483459473 
4.254552841186523 1.4762344360351562 6.389273166656494 
4.025448799133301 0.43457716703414917 6.329879283905029 
3.422452211380005 -0.43245869874954224 6.270386695861816 
2.5071377754211426 -1.0768793821334839 6.293699264526367 
1.369823932647705 -1.4858639240264893 6.443271636962891 
0.09540124237537384 -1.683681845664978 6.691315174102783 
-1.2601925134658813 -1.7184638977050781 6.973902225494385 
-2.662973165512085 -1.6459500789642334 7.257153511047363 
-4.089801788330078 -1.5155994892120361 7.562421798706055 
-5.53261137008667 -1.3596786260604858 7.9354047775268555 
-7.006270885467529 -1.1877363920211792 8.39480209350586 
-8.538006782531738 -0.9964332580566406 8.91070556640625 
-10.141565322875977 -0.7912272810935974 9.425971984863281 
-11.802430152893066 -0.6020814776420593 9.897990226745605 
-13.482858657836914 -0.4875434935092926 10.328968048095703 
-15.12915325164795 -0.5173943042755127 10.745573043823242 
-16.675609588623047 -0.7338587045669556 11.135956764221191 
-18.05767250061035 -1.1319133043289185 11.417597770690918 
-19.222883224487305 -1.6835812330245972 11.473376274108887 
-20.123958587646484 -2.3720240592956543 11.214160919189453 
-20.709850311279297 -3.1941888332366943 10.62419605255127 
-20.93037223815918 -4.14393949508667 9.769820213317871 
-20.759843826293945 -5.211031913757324 8.766509056091309 
-20.225337982177734 -6.381920337677002 7.73341178894043 
-19.401689529418945 -7.618186950683594 6.762630462646484 
-18.373939514160156 -8.847745895385742 5.908688545227051 
-17.19918441772461 -10.003325462341309 5.2025227546691895 
-15.891234397888184 -11.065089225769043 4.67560338973999 
-14.44491958618164 -12.044939041137695 4.364953517913818 
-12.86716365814209 -12.951034545898438 4.280510425567627 
-11.166059494018555 -13.800617218017578 4.358819007873535 
-9.33348274230957 -14.627774238586426 4.4741621017456055 
-7.37579345703125 -15.43376350402832 4.528101444244385 
-5.352029323577881 -16.160837173461914 4.524865627288818 
-3.357787609100342 -16.742862701416016 4.548435688018799 
-1.4819517135620117 -17.15801429748535 4.689519882202148 
0.20889000594615936 -17.428817749023438 5.003531455993652 
1.664775013923645 -17.608312606811523 5.500090599060059 
2.850004196166992 -17.771032333374023 6.150285720825195 
3.743143320083618 -17.980323791503906 6.914445400238037 
4.344766616821289 -18.256290435791016 7.763689994812012 
4.693210124969482 -18.5946044921875 8.668767929077148 
4.862143516540527 -19.010419845581055 9.57573413848877 
4.9295854568481445 -19.53972053527832 10.406726837158203 
4.951379776000977 -20.200660705566406 11.084611892700195 
4.976081371307373 -20.982669830322266 11.552884101867676 
5.074345588684082 -21.867965698242188 11.787238121032715 
5.318987846374512 -22.82814598083496 11.797369956970215 
5.7274394035339355 -23.802736282348633 11.596643447875977 
6.243512153625488 -24.7102108001709 11.156224250793457 
6.773473262786865 -25.482717514038086 10.406006813049316 
7.225585460662842 -26.089643478393555 9.300252914428711 
7.5296854972839355 -26.545917510986328 7.897802829742432 
7.644686698913574 -26.899932861328125 6.3877434730529785 
7.5593132972717285 -27.200136184692383 5.022793769836426 
7.283065319061279 -27.462961196899414 4.003270626068115 
6.832891941070557 -27.667388916015625 3.3954951763153076 
6.228211402893066 -27.782772064208984 3.138836622238159 
5.479085445404053 -27.797998428344727 3.146876335144043 
4.565376281738281 -27.721590042114258 3.414308547973633 
3.4498097896575928 -27.57481575012207 4.006140232086182 
2.1273598670959473 -27.399972915649414 4.942623615264893 
0.6447296738624573 -27.25957679748535 6.120319843292236 
-0.9274486303329468 -27.21501350402832 7.341983795166016 
-2.5056138038635254 -27.31732940673828 8.399209022521973 
-3.9813623428344727 -27.61381721496582 9.156067848205566 
-5.239896297454834 -28.14082908630371 9.609353065490723 
-6.195681571960449 -28.912227630615234 9.867353439331055 
-6.807243824005127 -29.921649932861328 10.03697681427002 
-7.079950332641602 -31.14019203186035 10.123388290405273 
-7.071864604949951 -32.50175094604492 10.049041748046875 
-6.8876142501831055 -33.903785705566406 9.759893417358398 
-6.636338233947754 -35.24290466308594 9.29338550567627 
-6.381281852722168 -36.4521369934082 8.749297142028809 
-6.137805461883545 -37.48764419555664 8.210664749145508 
-5.906237602233887 -38.2921028137207 7.6881022453308105 
-5.682544708251953 -38.808387756347656 7.131258964538574 
-5.448388576507568 -39.023223876953125 6.506726264953613 
-5.180587291717529 -38.971046447753906 5.872101306915283 
-4.869317531585693 -38.70500183105469 5.364412784576416 
-4.5053791999816895 -38.28480911254883 5.116121292114258 
-4.064000129699707 -37.783145904541016 5.172616481781006 
-3.5290679931640625 -37.27126693725586 5.469443321228027 
-2.9175775051116943 -36.7943115234375 5.88115930557251 
-2.265054702758789 -36.37209701538086 6.295027256011963 
-1.6051466464996338 -36.00086212158203 6.656899929046631 
-0.96700119972229 -35.64775466918945 6.967356204986572 
-0.36790069937705994 -35.27344512939453 7.241152763366699 
0.20671887695789337 -34.85990905761719 7.477160453796387 
0.8035174608230591 -34.4039421081543 7.663012504577637 
1.4772059917449951 -33.91172790527344 7.786370277404785 
2.2787108421325684 -33.42547607421875 7.831294059753418 
3.2573673725128174 -33.02983856201172 7.776244640350342 
4.452948570251465 -32.802589416503906 7.604893684387207 
5.874553680419922 -32.75437927246094 7.317053318023682 
7.481734275817871 -32.81948471069336 6.925036430358887 
9.185141563415527 -32.9065055847168 6.445262432098389 
10.863479614257812 -32.939788818359375 5.908810615539551 
12.39381217956543 -32.86054992675781 5.368062973022461 
13.696640014648438 -32.63557815551758 4.8727874755859375 
14.75678539276123 -32.26618194580078 4.461015224456787 
15.600720405578613 -31.77161979675293 4.181514263153076 
16.27387237548828 -31.17654800415039 4.086656093597412 
16.834917068481445 -30.508682250976562 4.185812473297119 
17.350515365600586 -29.7899227142334 4.420408248901367 
17.8868350982666 -29.030508041381836 4.697394847869873 
18.49970054626465 -28.24949073791504 4.957766056060791 
19.23188591003418 -27.50616455078125 5.217382907867432 
20.108806610107422 -26.884273529052734 5.540213108062744 
21.117773056030273 -26.432720184326172 5.965914726257324 
22.20217514038086 -26.140844345092773 6.4523797035217285 
23.2919864654541 -25.96626853942871 6.8768439292907715 
24.328054428100586 -25.86408805847168 7.094696998596191 
25.253738403320312 -25.79913902282715 7.030063629150391 
26.010927200317383 -25.744888305664062 6.732074737548828 
26.564559936523438 -25.669950485229492 6.336031436920166 
26.922700881958008 -25.5347843170166 5.971221446990967 
27.128822326660156 -25.30943489074707 5.701679229736328 
27.244140625 -24.995189666748047 5.526691913604736 
27.324237823486328 -24.621551513671875 5.423195838928223 
27.387325286865234 -24.197664260864258 5.392163276672363 
27.401365280151367 -23.666763305664062 5.462879657745361 
27.302034378051758 -22.939743041992188 5.655259609222412 
27.01986312866211 -21.970401763916016 5.943615436553955 
26.50229835510254 -20.77793312072754 6.258854866027832 
25.73427391052246 -19.42306137084961 6.533057689666748 
24.757854461669922 -17.993785858154297 6.736942291259766 
23.666414260864258 -16.59272003173828 6.869642734527588 
22.566776275634766 -15.31222152709961 6.929705619812012 
21.55152130126953 -14.224284172058105 6.894510269165039 
20.693439483642578 -13.37783145904541 6.713179588317871 
20.03328514099121 -12.782567024230957 6.3338775634765625 
19.563901901245117 -12.404769897460938 5.752856731414795 
19.233543395996094 -12.184804916381836 5.036082744598389 
18.965499877929688 -12.05431079864502 4.295235633850098 
18.677127838134766 -11.94705581665039 3.636195182800293 
18.289588928222656 -11.797517776489258 3.1153268814086914 
17.733070373535156 -11.541165351867676 2.7353413105010986 
16.955852508544922 -11.144740104675293 2.4761300086975098 
15.932304382324219 -10.6351900100708 2.323179244995117 
14.667757034301758 -10.087382316589355 2.265329599380493 
13.201078414916992 -9.589197158813477 2.2785651683807373 
11.595419883728027 -9.213714599609375 2.3265199661254883 
9.921571731567383 -9.001534461975098 2.374361753463745 
8.247000694274902 -8.950427055358887 2.3975117206573486 
6.634556293487549 -9.02642822265625 2.3831562995910645 
5.145076751708984 -9.191591262817383 2.337063789367676 
3.8320178985595703 -9.412225723266602 2.2932515144348145 
2.736865520477295 -9.651288986206055 2.2968380451202393 
1.8969371318817139 -9.879388809204102 2.3632009029388428 
1.345388412475586 -10.088828086853027 2.467965602874756 
1.0872453451156616 -10.280664443969727 2.5828490257263184 
1.0773745775222778 -10.444823265075684 2.706027030944824 
1.234616994857788 -10.561448097229004 2.8545658588409424 
1.4789767265319824 -10.611590385437012 3.0394139289855957 
1.7534741163253784 -10.569436073303223 3.2495806217193604 
2.022456645965576 -10.394911766052246 3.4458885192871094 
2.2574684619903564 -10.063032150268555 3.5650720596313477 
2.4231364727020264 -9.595003128051758 3.5589280128479004 
2.480503559112549 -9.043701171875 3.4483144283294678 
2.407503366470337 -8.460042953491211 3.316744327545166 
2.214204788208008 -7.881126403808594 3.236823320388794 
1.9365780353546143 -7.335216045379639 3.214397668838501 
1.6113076210021973 -6.84214973449707 3.2095863819122314 
1.2558563947677612 -6.410709857940674 3.198862075805664 
0.875765323638916 -6.046506881713867 3.206387519836426 
0.4826499819755554 -5.75538969039917 3.2820770740509033 
0.09887831658124924 -5.520843505859375 3.453709363937378 
-0.24727578461170197 -5.2840895652771 3.6929478645324707 
-0.5289808511734009 -4.964729309082031 3.9286181926727295 
-0.7250999212265015 -4.507209300994873 4.102810859680176 
-0.8164954781532288 -3.911651134490967 4.215873718261719 
-0.7860301733016968 -3.229177236557007 4.319283485412598 
-0.6282520890235901 -2.5280489921569824 4.474472522735596 
-0.35848379135131836 -1.850020170211792 4.715646743774414 
-0.01227530650794506 -1.1898399591445923 5.037785053253174 
0.3705303370952606 -0.5215393900871277 5.408958435058594 
0.7630023956298828 0.1551116406917572 5.795639991760254 
1.1428714990615845 0.8076013326644897 6.188969612121582 
1.4762495756149292 1.403990626335144 6.604121685028076 
1.7315694093704224 1.9289954900741577 7.0465569496154785 
1.9090030193328857 2.3740811347961426 7.48653507232666 
2.04036021232605 2.734663248062134 7.873271942138672 
2.158536672592163 3.008047580718994 8.179132461547852 
2.2834997177124023 3.1707582473754883 8.423996925354004 
2.4397706985473633 3.169762134552002 8.64176082611084 
2.669861316680908 2.9611551761627197 8.830718040466309 
3.0328032970428467 2.5446205139160156 8.942291259765625 
3.5959982872009277 1.9492350816726685 8.906840324401855 
4.404402732849121 1.2211158275604248 8.674145698547363 
5.437828540802002 0.4433593451976776 8.242010116577148 
6.612619400024414 -0.2650335133075714 7.6571125984191895 
7.850032806396484 -0.7887593507766724 6.999098777770996 
9.140488624572754 -1.0518072843551636 6.358382225036621 
10.519083976745605 -1.0287041664123535 5.817720890045166 
11.990008354187012 -0.7396609783172607 5.4465651512146 
13.496467590332031 -0.23644639551639557 5.291131496429443 
14.950587272644043 0.42327752709388733 5.358964443206787 
16.277503967285156 1.1994143724441528 5.6256585121154785 
17.433019638061523 2.069328546524048 6.058531761169434 
18.39521026611328 3.0150558948516846 6.629186630249023 
19.16175079345703 4.012589931488037 7.308575630187988 
19.760250091552734 5.017074108123779 8.053109169006348 
20.257795333862305 5.946871280670166 8.802292823791504 
20.749401092529297 6.691934108734131 9.504404067993164 
21.3061580657959 7.157471656799316 10.140496253967285 
21.924697875976562 7.30150032043457 10.707249641418457 
22.543682098388672 7.128929138183594 11.177528381347656 
23.10507583618164 6.6713762283325195 11.493303298950195 
23.590085983276367 5.979323387145996 11.610331535339355 
24.011308670043945 5.109213829040527 11.543916702270508 
24.38585662841797 4.110658168792725 11.358354568481445 
24.716812133789062 3.037952184677124 11.111557006835938 
24.996421813964844 1.9670157432556152 10.813028335571289 
25.224451065063477 0.9848644733428955 10.43542766571045 
25.42194938659668 0.17836464941501617 9.96593189239502 
25.627405166625977 -0.3455340266227722 9.451786041259766 
25.879150390625 -0.45996445417404175 8.992310523986816 
26.198209762573242 -0.08775568753480911 8.668323516845703 
26.58793067932129 0.7245780825614929 8.4761381149292 
27.047971725463867 1.8239775896072388 8.329179763793945 
27.58634376525879 3.0322647094726562 8.115832328796387 
28.223299026489258 4.188974857330322 7.772423267364502 
28.98288345336914 5.145833969116211 7.327901840209961 
29.874338150024414 5.791616439819336 6.8833537101745605 
30.879047393798828 6.118960857391357 6.534518718719482 
31.96330451965332 6.236655235290527 6.301241874694824 
33.10649490356445 6.288773059844971 6.129165172576904 
34.292564392089844 6.376007080078125 5.961858749389648 
35.46958541870117 6.546206474304199 5.810751914978027 
36.55289077758789 6.812414169311523 5.747599124908447 
37.47946548461914 7.156117916107178 5.829128742218018 
38.23850631713867 7.537803649902344 6.042556285858154 
38.84871292114258 7.924337863922119 6.31971549987793 
39.32710266113281 8.293708801269531 6.583817481994629 
39.67961883544922 8.621580123901367 6.792516708374023 
39.899391174316406 8.889705657958984 6.960830211639404 
39.96527862548828 9.094098091125488 7.141981601715088 
39.854244232177734 9.219074249267578 7.371634006500244 
39.55873489379883 9.21900463104248 7.625424861907959 
39.08963394165039 9.057470321655273 7.840213775634766 
38.47578048706055 8.758105278015137 7.978758811950684 
37.769344329833984 8.39067554473877 8.05778980255127 
37.039241790771484 8.022629737854004 8.118635177612305 
36.34886169433594 7.705753326416016 8.196552276611328 
35.74083709716797 7.475003719329834 8.310176849365234 
35.23668670654297 7.333456516265869 8.457865715026855 
34.83317947387695 7.2649970054626465 8.638858795166016 
34.49277114868164 7.271780014038086 8.889184951782227 
34.154911041259766 7.373640537261963 9.274639129638672 
33.761009216308594 7.572934627532959 9.840198516845703 
33.25631332397461 7.852179050445557 10.573573112487793 
32.58490753173828 8.205806732177734 11.408096313476562 
31.713314056396484 8.644315719604492 12.249086380004883 
30.657873153686523 9.162433624267578 13.009286880493164 
29.47207260131836 9.723888397216797 13.643012046813965 
28.208515167236328 10.2792329788208 14.152281761169434 
26.895923614501953 10.78357982635498 14.552918434143066 
25.528785705566406 11.199994087219238 14.837474822998047 
24.064767837524414 11.502145767211914 14.9779052734375 
22.45545196533203 11.678177833557129 14.962536811828613 
20.697877883911133 11.71928882598877 14.814750671386719 
18.847408294677734 11.607354164123535 14.571465492248535 
16.977588653564453 11.330130577087402 14.262950897216797 
15.141743659973145 10.889725685119629 13.91346549987793 
13.37185001373291 10.283186912536621 13.544290542602539 
11.683638572692871 9.515521049499512 13.176386833190918 
10.066844940185547 8.648908615112305 12.840689659118652 
8.493470191955566 7.800603866577148 12.590993881225586 
6.959476470947266 7.073358058929443 12.494220733642578 
5.510842800140381 6.515007972717285 12.587902069091797 
4.208944320678711 6.159263610839844 12.850127220153809 
3.0881829261779785 6.062057971954346 13.223047256469727 
2.1764047145843506 6.264102935791016 13.665042877197266 
1.5266271829605103 6.74127197265625 14.18328857421875 
1.1895527839660645 7.404637813568115 14.816118240356445 
1.153560757637024 8.13582706451416 15.572514533996582 
1.2971361875534058 8.839900970458984 16.384666442871094 
1.4115076065063477 9.485199928283691 17.1278133392334 
1.3336966037750244 10.064714431762695 17.6955509185791 
1.0683246850967407 10.509733200073242 18.05980110168457 
0.759742796421051 10.684792518615723 18.27100944519043 
0.5838470458984375 10.47714900970459 18.41326332092285 
0.688532829284668 9.864684104919434 18.541549682617188 
1.1820331811904907 8.900997161865234 18.641666412353516 
2.102156639099121 7.670896530151367 18.653003692626953 
3.3703441619873047 6.285119533538818 18.53127098083496 
4.8014020919799805 4.895849704742432 18.285186767578125 
6.187254428863525 3.6682894229888916 17.960777282714844 
7.392635822296143 2.7171008586883545 17.611186981201172 
8.387589454650879 2.085951566696167 17.287548065185547 
9.20728874206543 1.777438759803772 17.03752899169922 
9.905344009399414 1.7674751281738281 16.897382736206055 
10.540485382080078 2.0037121772766113 16.884225845336914 
11.166403770446777 2.4206161499023438 16.997203826904297 
11.806835174560547 2.9482948780059814 17.234846115112305 
12.448498725891113 3.501005172729492 17.61613655090332 
13.061686515808105 3.9808144569396973 18.18258285522461 
13.612667083740234 4.310969829559326 18.97521209716797 
14.063963890075684 4.465545177459717 19.997663497924805 
14.389739036560059 4.46830940246582 21.193958282470703 
14.590768814086914 4.371250629425049 22.467012405395508 
14.687652587890625 4.230337619781494 23.730920791625977 
14.717144966125488 4.079557418823242 24.950414657592773 
14.734773635864258 3.9162771701812744 26.12150764465332 
14.797971725463867 3.714823007583618 27.214134216308594 
14.947516441345215 3.4418487548828125 28.14353370666504 
15.212156295776367 3.054736852645874 28.80186653137207 
15.611292839050293 2.5220818519592285 29.12925910949707 
16.13971710205078 1.8675518035888672 29.167940139770508 
16.765960693359375 1.1702632904052734 29.046648025512695 
17.45735740661621 0.510116696357727 28.906967163085938 
18.20008087158203 -0.0718424916267395 28.82976722717285 
18.99203872680664 -0.5590910911560059 28.80656623840332 
19.824235916137695 -0.9316985607147217 28.76700782775879 
20.67926597595215 -1.1684367656707764 28.63991355895996 
21.543392181396484 -1.2603542804718018 28.40776252746582 
22.40851593017578 -1.2024610042572021 28.114688873291016 
23.274633407592773 -0.985695481300354 27.817325592041016 
24.16128921508789 -0.6105858087539673 27.530170440673828 
25.100318908691406 -0.09322560578584671 27.229646682739258 
26.117387771606445 0.5281774401664734 26.905759811401367 
27.239704132080078 1.1698639392852783 26.595314025878906 
28.505043029785156 1.72208833694458 26.36359405517578 
29.92741584777832 2.1150684356689453 26.262374877929688 
31.465164184570312 2.343705654144287 26.30506134033203 
33.05375289916992 2.4306793212890625 26.4658145904541 
34.658504486083984 2.3859288692474365 26.69353675842285 
36.28008270263672 2.2126097679138184 26.937591552734375 
37.927459716796875 1.9443546533584595 27.16219139099121 
39.599178314208984 1.6405717134475708 27.337162017822266 
41.280609130859375 1.330377221107483 27.439714431762695 
42.94670104980469 0.9893605709075928 27.47381019592285 
44.567752838134766 0.5788590908050537 27.46756362915039 
46.11332321166992 0.08461020141839981 27.444049835205078 
47.54153060913086 -0.4730118215084076 27.401185989379883 
48.79496765136719 -1.0391632318496704 27.31658363342285 
49.83842086791992 -1.5457608699798584 27.159141540527344 
50.7042350769043 -1.9521002769470215 26.894746780395508 
51.481502532958984 -2.264331102371216 26.49898338317871 
52.25950622558594 -2.5281195640563965 25.982580184936523 
53.08829879760742 -2.830810546875 25.400707244873047 
53.9812126159668 -3.29671049118042 24.823444366455078 
54.921016693115234 -4.021015167236328 24.297866821289062 
55.84757995605469 -4.987069606781006 23.842546463012695 
56.66719436645508 -6.067919731140137 23.467601776123047 
57.30120086669922 -7.108734607696533 23.187030792236328 
57.72551727294922 -8.008272171020508 23.010446548461914 
57.959571838378906 -8.740256309509277 22.931894302368164 
58.02931594848633 -9.323569297790527 22.928884506225586 
57.94935607910156 -9.800451278686523 22.964677810668945 
57.725303649902344 -10.227633476257324 22.99844741821289 
57.359344482421875 -10.646991729736328 23.005062103271484 
56.86106872558594 -11.067551612854004 22.9848575592041 
56.25603103637695 -11.48135757446289 22.9589786529541 
55.56697082519531 -11.872706413269043 22.959712982177734 
54.782657623291016 -12.21945571899414 23.01822853088379 
53.85664749145508 -12.511515617370605 23.155052185058594 
52.72866439819336 -12.764657974243164 23.376874923706055 
51.33678436279297 -13.015667915344238 23.674598693847656 
49.619956970214844 -13.316603660583496 24.018747329711914 
47.52742004394531 -13.728716850280762 24.354570388793945 
45.02914810180664 -14.305336952209473 24.612895965576172 
42.10567092895508 -15.064498901367188 24.743757247924805 
38.736202239990234 -15.971774101257324 24.739500045776367 
34.91636276245117 -16.953088760375977 24.620059967041016 
30.67746353149414 -17.910987854003906 24.407485961914062 
26.076887130737305 -18.72209358215332 24.12265396118164 
21.19013023376465 -19.256141662597656 23.787961959838867 
16.127487182617188 -19.432884216308594 23.409395217895508 
11.038189888000488 -19.256696701049805 22.961925506591797 
6.077924728393555 -18.784881591796875 22.404630661010742 
1.3818539381027222 -18.080175399780273 21.70257568359375 
-2.9363975524902344 -17.213754653930664 20.833568572998047 
-6.789070129394531 -16.286245346069336 19.783178329467773 
-10.116158485412598 -15.42186164855957 18.5457820892334 
-12.872068405151367 -14.759086608886719 17.145736694335938 
-15.02920150756836 -14.432439804077148 15.654354095458984 
-16.612905502319336 -14.5178861618042 14.175131797790527 
-17.725278854370117 -14.9758939743042 12.806063652038574 
-18.510334014892578 -15.645268440246582 11.602616310119629 
-19.081199645996094 -16.302995681762695 10.571419715881348 
-19.47646141052246 -16.756528854370117 9.710813522338867 
-19.67206382751465 -16.899953842163086 9.055108070373535 
-19.620155334472656 -16.71049690246582 8.658979415893555 
-19.275060653686523 -16.229555130004883 8.543129920959473 
-18.594877243041992 -15.546233177185059 8.675019264221191 
-17.548574447631836 -14.773117065429688 8.989840507507324 
-16.155895233154297 -14.02604866027832 9.41861343383789 
-14.51914119720459 -13.405978202819824 9.91761589050293 
-12.788871765136719 -12.977395057678223 10.479094505310059 
-11.092682838439941 -12.768976211547852 11.107809066772461 
-9.493646621704102 -12.799901008605957 11.79538631439209 
-7.994568347930908 -13.09042739868164 12.517197608947754 
-6.566142559051514 -13.641505241394043 13.241606712341309 
-5.173688888549805 -14.417762756347656 13.932104110717773 
-3.7947895526885986 -15.352275848388672 14.536348342895508 
-2.4321095943450928 -16.35633659362793 14.986385345458984 
-1.1178371906280518 -17.330297470092773 15.2354736328125 
0.09532104432582855 -18.17635154724121 15.300646781921387 
1.15143883228302 -18.802919387817383 15.251805305480957 
1.9997518062591553 -19.132022857666016 15.154254913330078 
2.591923952102661 -19.119218826293945 15.0245943069458 
2.899249792098999 -18.77095603942871 14.826857566833496 
2.944483757019043 -18.13796043395996 14.502070426940918 
2.7969799041748047 -17.275192260742188 14.02424430847168 
2.5374433994293213 -16.20696449279785 13.44325065612793 
2.2441763877868652 -14.946920394897461 12.857088088989258 
1.997983694076538 -13.541015625 12.33948040008545 
1.8723773956298828 -12.05958366394043 11.899526596069336 
1.9207391738891602 -10.562411308288574 11.493227005004883 
2.178581953048706 -9.109637260437012 11.07091236114502 
2.6633825302124023 -7.781024932861328 10.633977890014648 
3.3676836490631104 -6.6514081954956055 10.249322891235352 
4.258695125579834 -5.767487525939941 9.995612144470215 
5.285113334655762 -5.153825759887695 9.890703201293945 
6.392995357513428 -4.820972919464111 9.88199520111084 
7.548936367034912 -4.7682976722717285 9.917280197143555 
8.758251190185547 -4.992428302764893 10.007515907287598 
10.057687759399414 -5.490203857421875 10.209628105163574 
11.466867446899414 -6.2389445304870605 10.577177047729492 
12.939192771911621 -7.175756454467773 11.124251365661621 
14.375314712524414 -8.20901870727539 11.798273086547852 
15.688034057617188 -9.25426197052002 12.487882614135742 
16.849563598632812 -10.251320838928223 13.080041885375977 
17.88310432434082 -11.146900177001953 13.521424293518066 
18.827245712280273 -11.889925956726074 13.827839851379395 
19.711803436279297 -12.464212417602539 14.042488098144531 
20.544570922851562 -12.903369903564453 14.201648712158203 
21.307050704956055 -13.258947372436523 14.335591316223145 
21.970827102661133 -13.577960014343262 14.472918510437012 
22.516826629638672 -13.911504745483398 14.63739013671875 
22.93599510192871 -14.299102783203125 14.852559089660645 
23.237699508666992 -14.725265502929688 15.132325172424316 
23.47576904296875 -15.11223316192627 15.449475288391113 
23.742008209228516 -15.36141586303711 15.731108665466309 
24.11488914489746 -15.390850067138672 15.898886680603027 
24.624536514282227 -15.139402389526367 15.913734436035156 
25.262269973754883 -14.562861442565918 15.793004989624023 
25.998598098754883 -13.644400596618652 15.598760604858398 
26.796489715576172 -12.412558555603027 15.407851219177246 
27.635318756103516 -10.96094036102295 15.281109809875488 
28.521596908569336 -9.449254989624023 15.25281810760498 
29.459062576293945 -8.048686981201172 15.341943740844727 
30.410133361816406 -6.861938953399658 15.56204891204834 
31.294464111328125 -5.9093708992004395 15.91515827178955 
32.014854431152344 -5.19037389755249 16.383947372436523 
32.46428680419922 -4.7256574630737305 16.939849853515625 
32.52104187011719 -4.5383758544921875 17.558082580566406 
32.08294677734375 -4.625854015350342 18.220623016357422 
31.115041732788086 -4.9557929039001465 18.9034481048584 
29.645545959472656 -5.471241474151611 19.566267013549805 
27.732986450195312 -6.090804576873779 20.162555694580078 
25.457080841064453 -6.710418701171875 20.65553092956543 
22.926002502441406 -7.2056684494018555 21.02407455444336 
20.285778045654297 -7.430502891540527 21.26646614074707 
17.737953186035156 -7.237923622131348 21.40143394470215 
15.542844772338867 -6.533803462982178 21.453065872192383 
13.968545913696289 -5.312149524688721 21.42760467529297 
13.192688941955566 -3.632690191268921 21.318645477294922 
13.233177185058594 -1.5940285921096802 21.139392852783203 
13.966665267944336 0.6501173973083496 20.92995834350586 
15.18929386138916 2.8875133991241455 20.73817253112793 
16.66135597229004 4.890778541564941 20.607563018798828 
18.14127540588379 6.4500603675842285 20.561134338378906 
19.406126022338867 7.3745222091674805 20.5805721282959 
20.24580955505371 7.512721538543701 20.614267349243164 
20.464872360229492 6.809668064117432 20.61041831970215 
19.933706283569336 5.341495990753174 20.534469604492188 
18.65030288696289 3.2818729877471924 20.358234405517578 
16.725419998168945 0.8515768647193909 20.050233840942383 
14.306183815002441 -1.6987980604171753 19.58211898803711 
11.532629013061523 -4.118474960327148 18.93096351623535 
8.549423217773438 -6.216656684875488 18.071552276611328 
5.513479709625244 -7.875860691070557 16.980091094970703 
2.5536913871765137 -9.00501537322998 15.650405883789062 
-0.2714831531047821 -9.522951126098633 14.103142738342285 
-2.956876516342163 -9.396910667419434 12.386999130249023 
-5.499177932739258 -8.671061515808105 10.57812786102295 
-7.864038467407227 -7.453484058380127 8.772976875305176 
-9.982524871826172 -5.888508319854736 7.072818279266357 
-11.770596504211426 -4.1382832527160645 5.5696516036987305 
-13.161863327026367 -2.3613266944885254 4.341740131378174 
-14.124335289001465 -0.6843427419662476 3.4492173194885254 
-14.642400741577148 0.7992839813232422 2.9174153804779053 
-14.694443702697754 2.0050764083862305 2.7260167598724365 
-14.260029792785645 2.8604495525360107 2.8221969604492188 
-13.333961486816406 3.327150821685791 3.137598752975464 
-11.921015739440918 3.389004707336426 3.6003425121307373 
-10.040789604187012 3.046419143676758 4.148319721221924 
-7.75286865234375 2.355921506881714 4.729047775268555 
-5.160341262817383 1.4343535900115967 5.289112091064453 
-2.381256580352783 0.3971866965293884 5.769612789154053 
0.4740326404571533 -0.6804301142692566 6.111393451690674 
3.296694040298462 -1.7323031425476074 6.277621746063232 
5.9705491065979 -2.664754629135132 6.273502826690674 
8.395337104797363 -3.375821352005005 6.1301374435424805 
10.519857406616211 -3.788677215576172 5.878366947174072 
12.336289405822754 -3.8477728366851807 5.549417495727539 
13.848010063171387 -3.5103037357330322 5.185736656188965 
15.060531616210938 -2.7703535556793213 4.832090854644775 
15.9972505569458 -1.6868596076965332 4.5073089599609375 
16.70674705505371 -0.3836580216884613 4.189839839935303 
17.252403259277344 0.9704007506370544 3.8402156829833984 
17.70203971862793 2.1902713775634766 3.437246084213257 
18.129858016967773 3.1069376468658447 2.996514320373535 
18.610109329223633 3.595820188522339 2.561039447784424 
19.17256736755371 3.604135036468506 2.1654608249664307 
19.75324821472168 3.1659724712371826 1.8006590604782104 
20.21491050720215 2.381624460220337 1.4208526611328125 
20.434114456176758 1.3754054307937622 0.9906072020530701 
20.370237350463867 0.2596758306026459 0.5192484855651855 
20.062681198120117 -0.8840808272361755 0.051230691373348236 
19.581518173217773 -1.9966459274291992 -0.36222195625305176 
18.984487533569336 -3.017695903778076 -0.6789767146110535 
18.304533004760742 -3.8803610801696777 -0.870263397693634 
17.551071166992188 -4.5208563804626465 -0.9197168946266174 
16.701705932617188 -4.8714070320129395 -0.8165495991706848 
15.701982498168945 -4.8515095710754395 -0.5550004839897156 
14.503536224365234 -4.40756368637085 -0.14407029747962952 
13.114375114440918 -3.5694234371185303 0.4005694091320038 
11.603936195373535 -2.442173719406128 1.081799864768982 
10.06513500213623 -1.1557632684707642 1.9145071506500244 
8.577404022216797 0.15614458918571472 2.881114959716797 
7.182161808013916 1.3632404804229736 3.9047205448150635 
5.8730597496032715 2.364841938018799 4.86814022064209 
4.619953632354736 3.107367992401123 5.654918670654297 
3.4151482582092285 3.5736172199249268 6.196141242980957 
2.281778335571289 3.7781946659088135 6.511000633239746 
1.2236074209213257 3.7713892459869385 6.695555210113525 
0.18921349942684174 3.6102166175842285 6.842287063598633 
-0.9002256989479065 3.3224825859069824 6.966880798339844 
-2.0999460220336914 2.924842357635498 7.024868011474609 
-3.4095051288604736 2.4663236141204834 6.987916469573975 
-4.7742600440979 2.025432825088501 6.884334087371826 
-6.126060962677002 1.6745468378067017 6.7733235359191895 
-7.4353156089782715 1.4673593044281006 6.704885005950928 
-8.725093841552734 1.440761923789978 6.700455188751221 
-10.038037300109863 1.604809045791626 6.7454071044921875 
-11.402164459228516 1.9407156705856323 6.800992965698242 
-12.826589584350586 2.4251606464385986 6.835972785949707 
-14.305779457092285 3.049652338027954 6.8423309326171875 
-15.816908836364746 3.80788516998291 6.825267314910889 
-17.31978988647461 4.691466331481934 6.794410228729248 
-18.757856369018555 5.720048904418945 6.767475605010986 
-20.059734344482422 6.938207626342773 6.773014545440674 
-21.153682708740234 8.352524757385254 6.839026927947998 
-21.98890495300293 9.902060508728027 6.9761881828308105 
-22.540861129760742 11.506229400634766 7.180533409118652 
-22.79855728149414 13.116249084472656 7.4570631980896 
-22.75351333618164 14.72042465209961 7.831600666046143 
-22.408103942871094 16.325498580932617 8.333383560180664 
-21.795413970947266 17.92459487915039 8.972395896911621 
-20.977693557739258 19.46156883239746 9.730538368225098 
-20.023744583129883 20.839065551757812 10.56460952758789 
-18.99608039855957 21.97063636779785 11.42225456237793 
-17.946462631225586 22.80776596069336 12.261202812194824 
-16.90692138671875 23.32075309753418 13.054267883300781 
-15.89024543762207 23.492084503173828 13.784831047058105 
-14.91627025604248 23.343923568725586 14.447916030883789 
-14.032487869262695 22.943347930908203 15.052229881286621 
-13.28338623046875 22.36400032043457 15.613829612731934 
-12.673234939575195 21.66227149963379 16.151281356811523 
-12.19073486328125 20.898923873901367 16.683841705322266 
-11.846467018127441 20.14968490600586 17.218778610229492 
-11.656289100646973 19.469091415405273 17.73573875427246 
-11.613018989562988 18.8692626953125 18.190502166748047 
-11.696014404296875 18.34766387939453 18.53719139099121 
-11.887101173400879 17.89957046508789 18.742584228515625 
-12.160381317138672 17.49281120300293 18.77716064453125 
-12.480751991271973 17.075111389160156 18.61257553100586 
-12.839004516601562 16.625350952148438 18.2531795501709 
-13.274706840515137 16.171600341796875 17.761327743530273 
-13.844733238220215 15.754941940307617 17.232303619384766 
-14.576486587524414 15.390573501586914 16.751758575439453 
-15.45789623260498 15.063192367553711 16.381242752075195 
-16.456958770751953 14.745649337768555 16.15943145751953 
-17.541099548339844 14.410463333129883 16.09671401977539 
-18.68956756591797 14.04445743560791 16.1708984375 
-19.895448684692383 13.67327880859375 16.33165168762207 
-21.1528263092041 13.351195335388184 16.509918212890625 
-22.431472778320312 13.115732192993164 16.624662399291992 
-23.65813446044922 12.971426010131836 16.57975959777832 
-24.734800338745117 12.909746170043945 16.2753963470459 
-25.57395362854004 12.90511417388916 15.658206939697266 
-26.114627838134766 12.900164604187012 14.764065742492676 
-26.33832550048828 12.840136528015137 13.700361251831055 
-26.2873592376709 12.714656829833984 12.587272644042969 
-26.0496883392334 12.54974365234375 11.50732135772705 
-25.713991165161133 12.382710456848145 10.492891311645508 
-25.336763381958008 12.247403144836426 9.552593231201172 
-24.942262649536133 12.154082298278809 8.708136558532715 
-24.532424926757812 12.064432144165039 8.004679679870605 
-24.08769989013672 11.898965835571289 7.487927436828613 
-23.576162338256836 11.599132537841797 7.181212425231934 
-22.964885711669922 11.176383972167969 7.082111358642578 
-22.216581344604492 10.677900314331055 7.1628499031066895 
-21.311498641967773 10.134786605834961 7.375730514526367 
-20.299808502197266 9.572964668273926 7.676207542419434 
-19.302553176879883 9.041641235351562 8.036787986755371 
-18.44086265563965 8.61179256439209 8.429756164550781 
-17.77992057800293 8.363814353942871 8.808991432189941 
-17.329830169677734 8.358583450317383 9.11320972442627 
-17.059200286865234 8.589073181152344 9.279520034790039 
-16.904232025146484 8.965744972229004 9.26410961151123 
-16.80164909362793 9.366186141967773 9.062966346740723 
-16.733556747436523 9.69912338256836 8.707247734069824 
-16.736305236816406 9.922454833984375 8.225624084472656 
-16.86957359313965 10.030406951904297 7.603899955749512 
-17.17779541015625 10.046016693115234 6.7919087409973145 
-17.661937713623047 10.00590705871582 5.767786502838135 
-18.266511917114258 9.9341459274292 4.589779376983643 
-18.887039184570312 9.829071044921875 3.369886875152588 
-19.402973175048828 9.658145904541016 2.200957775115967 
-19.714046478271484 9.357115745544434 1.1151596307754517 
-19.746013641357422 8.8512601852417 0.10346633195877075 
-19.43817710876465 8.095630645751953 -0.8304733037948608 
-18.747631072998047 7.109601974487305 -1.6244597434997559 
-17.6658992767334 5.971038818359375 -2.157991647720337 
-16.227689743041992 4.768731594085693 -2.3086493015289307 
-14.516927719116211 3.572573661804199 -2.0276968479156494 
-12.665021896362305 2.451758623123169 -1.376343011856079 
-10.812738418579102 1.4892009496688843 -0.49510952830314636 
-9.060277938842773 0.7544116973876953 0.4669777750968933 
-7.4648261070251465 0.27930986881256104 1.4108792543411255 
-6.070089340209961 0.07150242477655411 2.2924861907958984 
-4.920689105987549 0.12689560651779175 3.077740430831909 
-4.060128211975098 0.4147506654262543 3.6973235607147217 
-3.522888660430908 0.8695106506347656 4.053404331207275 
-3.3265514373779297 1.405051827430725 4.07866907119751 
-3.469773530960083 1.9210827350616455 3.7793877124786377 
-3.9381489753723145 2.3093631267547607 3.215869426727295 
-4.7215447425842285 2.4826035499572754 2.456928253173828 
-5.826447010040283 2.39752197265625 1.5516325235366821 
-7.255848407745361 2.050375461578369 0.5167199373245239 
-8.979349136352539 1.4685908555984497 -0.6607217192649841 
-10.934487342834473 0.7143428325653076 -1.9875792264938354 
-13.041152000427246 -0.12185513228178024 -3.4190008640289307 
-15.202971458435059 -0.9499406814575195 -4.860055923461914 
-17.31698226928711 -1.6984995603561401 -6.214343547821045 
-19.299692153930664 -2.3045225143432617 -7.423754692077637 
-21.0938720703125 -2.708763360977173 -8.472444534301758 
-22.642906188964844 -2.87922739982605 -9.377455711364746 
-23.8828125 -2.83363938331604 -10.180471420288086 
-24.785478591918945 -2.6214957237243652 -10.924180030822754 
-25.39627456665039 -2.282771587371826 -11.624226570129395 
-25.815906524658203 -1.8317476511001587 -12.27061653137207 
-26.16317367553711 -1.2635705471038818 -12.847187995910645 
-26.548425674438477 -0.5620610117912292 -13.340278625488281 
-27.041011810302734 0.27715590596199036 -13.748448371887207 
-27.644611358642578 1.211112141609192 -14.104631423950195 
-28.32147789001465 2.156768321990967 -14.478129386901855 
-29.040912628173828 3.049149513244629 -14.935772895812988 
-29.78152084350586 3.863637924194336 -15.500103950500488 
-30.497055053710938 4.5735859870910645 -16.14765167236328 
-31.11229705810547 5.123510837554932 -16.83687973022461 
-31.54863166809082 5.454103946685791 -17.53506088256836 
-31.728567123413086 5.528835773468018 -18.230600357055664 
-31.558483123779297 5.333773612976074 -18.914751052856445 
-30.935163497924805 4.883495330810547 -19.540115356445312 
-29.784839630126953 4.237085342407227 -20.018341064453125 
-28.094552993774414 3.473456382751465 -20.285581588745117 
-25.91691017150879 2.6429479122161865 -20.363130569458008 
-23.35466766357422 1.7654250860214233 -20.341224670410156 
-20.521509170532227 0.863095223903656 -20.308923721313477 
-17.513778686523438 -0.0170835480093956 -20.29422378540039 
-14.430694580078125 -0.8000554442405701 -20.248394012451172 
-11.40148639678955 -1.405547022819519 -20.08440589904785 
-8.577258110046387 -1.7799475193023682 -19.762516021728516 
-6.098363876342773 -1.906361699104309 -19.35524559020996 
-4.067547798156738 -1.7945011854171753 -19.009614944458008 
-2.550215005874634 -1.4635765552520752 -18.83526039123535 
-1.576286792755127 -0.9426426291465759 -18.82912826538086 
-1.1302469968795776 -0.29598498344421387 -18.90452003479004 
-1.1711652278900146 0.3749833405017853 -18.98983383178711 
-1.673046588897705 0.9788010716438293 -19.091447830200195 
-2.619699478149414 1.474472999572754 -19.269622802734375 
-3.95320200920105 1.8590034246444702 -19.57375144958496 
-5.546370983123779 2.13261342048645 -19.996232986450195 
-7.238595485687256 2.2850592136383057 -20.476377487182617 
-8.893505096435547 2.2958168983459473 -20.943843841552734 
-10.421512603759766 2.125336170196533 -21.36330795288086 
-11.77421760559082 1.7157511711120605 -21.751148223876953 
-12.948319435119629 1.0145878791809082 -22.15461540222168 
-13.986812591552734 -0.008881201036274433 -22.61865234375 
-14.951679229736328 -1.3586668968200684 -23.17228126525879 
-15.893019676208496 -2.9979050159454346 -23.830646514892578 
-16.838680267333984 -4.842136859893799 -24.59601402282715 
-17.79512596130371 -6.782573223114014 -25.4542236328125 
-18.76013946533203 -8.719027519226074 -26.374082565307617 
-19.751468658447266 -10.571876525878906 -27.32404327392578 
-20.82120132446289 -12.284303665161133 -28.302555084228516 
-22.03199577331543 -13.832737922668457 -29.34446907043457 
-23.42470932006836 -15.221718788146973 -30.482210159301758 
-25.008432388305664 -16.45185089111328 -31.705162048339844 
-26.76506233215332 -17.509817123413086 -32.97352600097656 
-28.658418655395508 -18.40787696838379 -34.265995025634766 
-30.64303970336914 -19.207447052001953 -35.59107971191406 
-32.66053771972656 -19.980329513549805 -36.958885192871094 
-34.62422561645508 -20.770893096923828 -38.367069244384766 
-36.39874267578125 -21.606664657592773 -39.80971145629883 
-37.79574966430664 -22.51234245300293 -41.28636169433594 
-38.62322998046875 -23.48992919921875 -42.80183410644531 
-38.76442337036133 -24.484588623046875 -44.34718704223633 
-38.2103271484375 -25.374235153198242 -45.87455749511719 
-37.028526306152344 -26.00633430480957 -47.31147384643555 
-35.31620788574219 -26.269548416137695 -48.623573303222656 
-33.169212341308594 -26.149442672729492 -49.858734130859375 
-30.6666316986084 -25.718425750732422 -51.11322784423828 
-27.86532211303711 -25.07386589050293 -52.44990158081055 
-24.79573631286621 -24.294050216674805 -53.84261703491211 
-21.45709800720215 -23.449073791503906 -55.18769454956055 
-17.833251953125 -22.62044906616211 -56.3659782409668 
-13.933768272399902 -21.880159378051758 -57.30748748779297 
-9.807750701904297 -21.26964569091797 -58.0255012512207 
-5.503210544586182 -20.81430435180664 -58.60917282104492 
-1.031182885169983 -20.524028778076172 -59.17670822143555 
3.6297767162323 -20.367284774780273 -59.823448181152344 
8.51806926727295 -20.28468132019043 -60.608795166015625 
13.668281555175781 -20.258777618408203 -61.568267822265625 
19.08137321472168 -20.363426208496094 -62.717857360839844 
24.719755172729492 -20.736616134643555 -64.05895233154297 
30.53856086730957 -21.508882522583008 -65.59083557128906 
36.50556564331055 -22.74161148071289 -67.31449127197266 
42.58517837524414 -24.41597557067871 -69.22164916992188 
48.729835510253906 -26.486589431762695 -71.2839584350586 
54.89982223510742 -28.94570541381836 -73.45491027832031 
61.06619644165039 -31.82274055480957 -75.67808532714844 
67.18171691894531 -35.122318267822266 -77.89749145507812 
73.16424560546875 -38.783756256103516 -80.07585906982422 
78.9114990234375 -42.70351791381836 -82.21053314208984 
84.32300567626953 -46.75676727294922 -84.32614135742188 
89.31109619140625 -50.78078842163086 -86.45112609863281 
93.8099365234375 -54.57223892211914 -88.60489654541016 
97.79021453857422 -57.9105339050293 -90.79920959472656 
101.25941467285156 -60.56916809082031 -93.03489685058594 
104.25333404541016 -62.32364273071289 -95.29653930664062 
106.8488540649414 -62.98309326171875 -97.55941772460938 
109.1817855834961 -62.424564361572266 -99.79833984375 
111.43718719482422 -60.601470947265625 -101.9840087890625 
113.8261489868164 -57.54927062988281 -104.07467651367188 
116.58390808105469 -53.41958236694336 -106.01947021484375 
119.97466278076172 -48.50664520263672 -107.77506256103516 
124.25125885009766 -43.19629669189453 -109.32162475585938 
129.5797882080078 -37.85786819458008 -110.67105865478516 
136.0118408203125 -32.77193069458008 -111.86280059814453 
143.5284423828125 -28.122920989990234 -112.9475326538086 
152.0823211669922 -24.02089500427246 -113.97147369384766 
161.6090087890625 -20.518508911132812 -114.95999145507812 
172.03846740722656 -17.612407684326172 -115.89787292480469 
183.29360961914062 -15.24977970123291 -116.7225112915039 
195.2586212158203 -13.36875057220459 -117.33658599853516 
207.7610321044922 -11.954414367675781 -117.63640594482422 
220.58824157714844 -11.047720909118652 -117.54606628417969 
233.49908447265625 -10.683366775512695 -117.03196716308594 
246.22006225585938 -10.819337844848633 -116.09931945800781 
258.4608154296875 -11.338301658630371 -114.79528045654297 
269.9476013183594 -12.112628936767578 -113.21072387695312 
280.4518127441406 -13.053267478942871 -111.46211242675781 
289.8076171875 -14.096938133239746 -109.66463470458984 
297.9192199707031 -15.161449432373047 -107.91704559326172 
304.7587585449219 -16.125513076782227 -106.29887390136719 
310.3607482910156 -16.84381675720215 -104.86555480957031 
314.8193359375 -17.173606872558594 -103.6452865600586 
318.2804260253906 -17.00145721435547 -102.65559387207031 
320.9085998535156 -16.254865646362305 -101.92646026611328 
322.8320007324219 -14.888906478881836 -101.49124145507812 
324.0934143066406 -12.878024101257324 -101.34095764160156 
324.65069580078125 -10.233495712280273 -101.3938980102539 
324.4257507324219 -7.014836311340332 -101.52942657470703 
323.3377685546875 -3.306251287460327 -101.65943145751953 
321.3028564453125 0.8229864835739136 -101.76844024658203 
318.2481384277344 5.336523532867432 -101.89989471435547 
314.14923095703125 10.218286514282227 -102.10588073730469 
309.0470275878906 15.45921516418457 -102.37943267822266 
303.0302429199219 21.06094741821289 -102.61674499511719 
296.221435546875 27.036081314086914 -102.6629638671875 
288.789306640625 33.40620040893555 -102.41690826416016 
280.960693359375 40.21560287475586 -101.90306091308594 
273.00494384765625 47.522891998291016 -101.24909973144531 
265.198974609375 55.3338737487793 -100.5896224975586 
257.7811279296875 63.539546966552734 -99.98450469970703 
250.90658569335938 71.92913818359375 -99.42069244384766 
244.6471405029297 80.22325897216797 -98.87582397460938 
239.03651428222656 88.06794738769531 -98.37525939941406 
234.10125732421875 95.0634536743164 -97.99296569824219 
229.85787963867188 100.87522888183594 -97.7978744506836 
226.3069305419922 105.3274154663086 -97.80695343017578 
223.43344116210938 108.39747619628906 -97.9927978515625 
221.201171875 110.15912628173828 -98.31808471679688 
219.5452117919922 110.74934387207031 -98.75361633300781 
218.37820434570312 110.35877990722656 -99.28046417236328 
217.6007843017578 109.1988525390625 -99.88068389892578 
217.09596252441406 107.45323944091797 -100.50752258300781 
216.7171630859375 105.2551040649414 -101.06122589111328 
216.31427001953125 102.6791763305664 -101.4156723022461 
215.79248046875 99.74388885498047 -101.47737121582031 
215.13189697265625 96.45501708984375 -101.21173095703125 
214.35116577148438 92.85877227783203 -100.6226806640625 
213.47999572753906 89.04385375976562 -99.72429656982422 
212.5702667236328 85.10147094726562 -98.53315734863281 
211.69772338867188 81.0977783203125 -97.07707977294922 
210.9224853515625 77.0891342163086 -95.39826202392578 
210.25917053222656 73.15189361572266 -93.55109405517578 
209.69178771972656 69.38288879394531 -91.6064224243164 
209.19900512695312 65.86446380615234 -89.6414566040039 
208.76315307617188 62.62162780761719 -87.69841003417969 
208.3679656982422 59.59923553466797 -85.74949645996094 
207.97621154785156 56.686283111572266 -83.70738220214844 
207.4872283935547 53.78282928466797 -81.47618103027344 
206.7320098876953 50.83503723144531 -79.00572967529297 
205.52476501464844 47.80790328979492 -76.29852294921875 
203.69935607910156 44.67780303955078 -73.35476684570312 
201.09423828125 41.47871780395508 -70.12103271484375 
197.54071044921875 38.31765365600586 -66.51795196533203 
192.89810180664062 35.31451416015625 -62.529720306396484 
187.0841522216797 32.54730987548828 -58.26093292236328 
180.0438232421875 30.07254981994629 -53.902652740478516 
171.70962524414062 27.973329544067383 -49.64908981323242 
162.00872802734375 26.369577407836914 -45.63908004760742 
150.88307189941406 25.39805030822754 -41.94642639160156 
138.29779052734375 25.194856643676758 -38.59804916381836 
124.24869537353516 25.877281188964844 -35.60004806518555 
108.77667236328125 27.515363693237305 -32.962520599365234 
91.98844909667969 30.118898391723633 -30.704524993896484 
74.0550537109375 33.64868927001953 -28.834238052368164 
55.171173095703125 38.01796340942383 -27.33252716064453 
35.51511001586914 43.080360412597656 -26.15858268737793 
15.242463111877441 48.64151382446289 -25.271408081054688 
-5.499947547912598 54.48917770385742 -24.650732040405273 
-26.559001922607422 60.3952522277832 -24.29440689086914 
-47.761600494384766 66.10041046142578 -24.188596725463867 
-68.91704559326172 71.33365631103516 -24.270299911499023 
-89.83641052246094 75.84407043457031 -24.41358184814453 
-110.33101654052734 79.3983383178711 -24.461027145385742 
-130.19908142089844 81.78234100341797 -24.26793670654297 
-149.2548065185547 82.83468627929688 -23.717145919799805 
-167.371826171875 82.44794464111328 -22.713640213012695 
-184.47982788085938 80.5239028930664 -21.16815757751465 
-200.5316619873047 76.96563720703125 -18.97635841369629 
-215.46302795410156 71.72537994384766 -16.038623809814453 
-229.1570587158203 64.84510040283203 -12.326155662536621 
-241.45635986328125 56.46535110473633 -7.91765832901001 
-252.21466064453125 46.82566833496094 -2.96441912651062 
-261.3335876464844 36.25590515136719 2.365556240081787 
-268.76336669921875 25.130290985107422 7.917654991149902 
-274.4830017089844 13.806777000427246 13.558087348937988 
-278.4840087890625 2.6190924644470215 19.166866302490234 
-280.7582092285156 -8.098167419433594 24.625282287597656 
-281.28985595703125 -18.03667640686035 29.813703536987305 
-280.07989501953125 -26.985321044921875 34.625732421875 
-277.1827087402344 -34.85758972167969 38.985260009765625 
-272.6971740722656 -41.65911865234375 42.843204498291016 
-266.71563720703125 -47.4645881652832 46.162105560302734 
-259.2904968261719 -52.42255783081055 48.937538146972656 
-250.4390869140625 -56.74699783325195 51.25048065185547 
-240.15878295898438 -60.70173263549805 53.25947570800781 
-228.43431091308594 -64.59954833984375 55.105533599853516 
-215.26316833496094 -68.78943634033203 56.834957122802734 
-200.69789123535156 -73.61448669433594 58.41923141479492 
-184.8512725830078 -79.3853759765625 59.82858657836914 
-167.85678100585938 -86.3963623046875 61.07969284057617 
-149.85707092285156 -94.90900421142578 62.21269226074219 
-131.0574951171875 -105.04708862304688 63.2140998840332 
-111.76846313476562 -116.70455932617188 63.95960998535156 
-92.35850524902344 -129.57586669921875 64.23253631591797 
-73.17295837402344 -143.23814392089844 63.810420989990234 
-54.505149841308594 -157.183837890625 62.57215118408203 
-36.60002517700195 -170.83934020996094 60.552818298339844 
-19.639053344726562 -183.62680053710938 57.90602111816406 
-3.7194342613220215 -195.04742431640625 54.82182312011719 
11.145687103271484 -204.73599243164062 51.46732711791992 
24.998096466064453 -212.45654296875 47.983577728271484 
37.871490478515625 -218.05836486816406 44.53704833984375 
49.732696533203125 -221.44297790527344 41.36006164550781 
60.483543395996094 -222.58819580078125 38.71522903442383 
70.00867462158203 -221.6308135986328 36.816104888916016 
78.19706726074219 -218.92483520507812 35.77778625488281 
84.91446685791016 -214.99147033691406 35.62452697753906 
89.99146270751953 -210.4020233154297 36.325538635253906 
93.25794982910156 -205.68470764160156 37.813846588134766 
94.56436920166016 -201.27276611328125 39.98532485961914 
93.7567138671875 -197.4776153564453 42.701236724853516 
90.64700317382812 -194.4695281982422 45.79591369628906 
85.02943420410156 -192.25320434570312 49.09487533569336 
76.73961639404297 -190.65777587890625 52.44874572753906 
65.69416809082031 -189.36276245117188 55.757850646972656 
51.8739013671875 -187.95675659179688 58.97319030761719 
35.30171585083008 -186.0196075439453 62.088687896728516 
16.05618667602539 -183.20327758789062 65.13031768798828 
-5.726287841796875 -179.28338623046875 68.1386947631836 
-29.87778663635254 -174.18898010253906 71.15090942382812 
-56.19260025024414 -168.0291290283203 74.18278503417969 
-84.40270233154297 -161.1067352294922 77.21289825439453 
-114.20637512207031 -153.8993377685547 80.18120574951172 
-145.31954956054688 -146.99305725097656 82.99808502197266 
-177.5021514892578 -140.98980712890625 85.55268096923828 
-210.57789611816406 -136.42662048339844 87.73268127441406 
-244.43540954589844 -133.71669006347656 89.45161437988281 
-279.00469970703125 -133.10336303710938 90.65532684326172 
-314.2345275878906 -134.61354064941406 91.31790161132812 
-350.0501708984375 -138.02633666992188 91.44949340820312 
-386.3014221191406 -142.90899658203125 91.10404205322266 
-422.7657470703125 -148.69825744628906 90.38976287841797 
-459.1932067871094 -154.74188232421875 89.48497772216797 
-495.31158447265625 -160.3090362548828 88.62091827392578 
-530.7816162109375 -164.6437225341797 88.0276107788086 
-565.1846313476562 -167.0605926513672 87.90201568603516 
-598.0787353515625 -167.03091430664062 88.42725372314453 
-629.0697021484375 -164.24423217773438 89.7962646484375 
-657.8406372070312 -158.6474151611328 92.19114685058594 
-684.1426391601562 -150.44847106933594 95.73814392089844 
-707.7866821289062 -140.07118225097656 100.48450469970703 
-728.65283203125 -128.07411193847656 106.39779663085938 
-746.694091796875 -115.0733642578125 113.37908935546875 
-761.93505859375 -101.66896057128906 121.30657958984375 
-774.471923828125 -88.34854125976562 130.08335876464844 
-784.4664306640625 -75.40677642822266 139.62466430664062 
-792.1287841796875 -62.94614028930664 149.78623962402344 
-797.6929321289062 -50.95219802856445 160.30911254882812 
-801.39892578125 -39.36825942993164 170.84510803222656 
-803.489013671875 -28.11971092224121 181.0474853515625 
-804.19873046875 -17.114728927612305 190.64173889160156 
-803.7374877929688 -6.267964839935303 199.43093872070312 
-802.2765502929688 4.461061477661133 207.2748260498047 
-799.9375610351562 15.065450668334961 214.07398986816406 
-796.7693481445312 25.529281616210938 219.75831604003906 
-792.7230834960938 35.84721755981445 224.290771484375 
-787.636962890625 46.016780853271484 227.6800537109375 
-781.23291015625 56.05463409423828 229.96481323242188 
-773.1323852539062 65.9994888305664 231.15147399902344 
-762.8817749023438 75.8380355834961 231.1505889892578 
-749.9780883789062 85.43889617919922 229.77781677246094 
-733.9083862304688 94.58006286621094 226.8207244873047 
-714.2273559570312 103.00741577148438 222.13368225097656 
-690.6649169921875 110.47811126708984 215.75794982910156 
-663.213623046875 116.8016586303711 208.0497283935547 
-632.1876831054688 121.8433609008789 199.75782775878906 
-598.2520141601562 125.45758819580078 192.031005859375 
-562.4158325195312 127.4139175415039 186.36143493652344 
-526.0213623046875 127.4056167602539 184.4381561279297 
-490.70709228515625 125.12718200683594 187.91781616210938 
-458.2810974121094 120.35765075683594 198.17242431640625 
-430.51654052734375 113.0500259399414 216.04432678222656 
-408.96630859375 103.43791961669922 241.6402587890625 
-394.8659973144531 92.11324310302734 274.23046875 
-389.08782958984375 80.01548767089844 312.27783203125 
-392.1122741699219 68.31932067871094 353.5714416503906 
-404.0498352050781 58.27737808227539 395.44415283203125 
-424.6925354003906 51.06991958618164 435.0646667480469 
-453.5361022949219 47.64812469482422 469.78436279296875 
-489.7959899902344 48.584068298339844 497.44537353515625 
-532.4638061523438 53.986961364746094 516.5325317382812 
-580.360595703125 63.48938751220703 526.1929931640625 
-632.1714477539062 76.28807830810547 526.2206420898438 
-686.5203247070312 91.26910400390625 517.0327758789062 
-742.0549926757812 107.19170379638672 499.63232421875 
-797.4805297851562 122.8474349975586 475.5147705078125 
-851.5794067382812 137.1816864013672 446.49249267578125 
-903.2559814453125 149.41810607910156 414.4934997558594 
-951.58642578125 159.17288208007812 381.3959045410156 
-995.8407592773438 166.48826599121094 348.8956298828125 
-1035.46728515625 171.7595977783203 318.4141540527344 
-1070.0770263671875 175.61380004882812 291.06494140625 
-1099.4561767578125 178.80587768554688 267.6538391113281 
-1123.5565185546875 182.1355743408203 248.661865234375 
-1142.4354248046875 186.34722900390625 234.2209014892578 
-1156.1856689453125 192.03125 224.13461303710938 
-1164.890869140625 199.56007385253906 217.94680786132812 
-1168.61279296875 209.03001403808594 215.0189971923828 
-1167.386474609375 220.22291564941406 214.59263610839844 
-1161.1923828125 232.64041137695312 215.8325653076172 
-1149.906982421875 245.564697265625 217.86236572265625 
-1133.2716064453125 258.0948486328125 219.80409240722656 
-1110.9202880859375 269.21673583984375 220.8274688720703 
-1082.4722900390625 277.9352722167969 220.21437072753906 
-1047.6072998046875 283.3796691894531 217.4352264404297 
-1006.07373046875 284.8243103027344 212.2020721435547 
-957.708251953125 281.70166015625 204.45864868164062 
-902.4803466796875 273.6719665527344 194.3177490234375 
-840.46240234375 260.6734924316406 181.99156188964844 
-771.7619018554688 242.8861083984375 167.7578887939453 
-696.5634155273438 220.67694091796875 151.9774932861328 
-615.2311401367188 194.5707550048828 135.11756896972656 
-528.3302001953125 165.20664978027344 117.72035217285156 
-436.6228942871094 133.28787231445312 100.3331069946289 
-341.0895080566406 99.5503158569336 83.45936584472656 
-242.89657592773438 64.73939514160156 67.54891967773438 
-143.32522583007812 29.592008590698242 52.99871826171875 
-43.728511810302734 -5.177890300750732 40.14533233642578 
54.499576568603516 -38.91706085205078 29.246992111206055 
149.96153259277344 -71.10665130615234 20.453184127807617 
241.29981994628906 -101.42683410644531 13.779991149902344 
327.2528381347656 -129.74684143066406 9.106675148010254 
406.708740234375 -156.0413818359375 6.183129787445068 
478.7447814941406 -180.30374145507812 4.642377853393555 
542.655029296875 -202.514892578125 4.020320892333984 
597.9518432617188 -222.65065002441406 3.7862210273742676 
644.3342895507812 -240.66586303710938 3.392639398574829 
681.656005859375 -256.4662780761719 2.329655885696411 
709.9220581054688 -269.9338684082031 0.15716169774532318 
729.3081665039062 -280.9969787597656 -3.4707958698272705 
740.1709594726562 -289.6686706542969 -8.777298927307129 
743.0420532226562 -296.033935546875 -15.855042457580566 
738.6405639648438 -300.2221984863281 -24.679676055908203 
727.8770141601562 -302.3663024902344 -35.1058464050293 
711.788818359375 -302.5553894042969 -46.85257339477539 
691.4527587890625 -300.8368225097656 -59.5255012512207 
667.9407958984375 -297.2779541015625 -72.6746826171875 
642.2992553710938 -292.01373291015625 -85.8470687866211 
615.5249633789062 -285.234375 -98.62098693847656 
588.543701171875 -277.1561584472656 -110.6390609741211 
562.1973266601562 -268.01116943359375 -121.64466857910156 
537.2530517578125 -258.046630859375 -131.50379943847656 
514.4338989257812 -247.5312042236328 -140.19888305664062 
494.42242431640625 -236.76649475097656 -147.8119659423828 
477.785400390625 -226.08872985839844 -154.5146942138672 
464.87176513671875 -215.8594207763672 -160.5515899658203 
455.7888488769531 -206.445068359375 -166.20973205566406 
450.46466064453125 -198.177978515625 -171.78302001953125 
448.7141418457031 -191.3061981201172 -177.53463745117188 
450.2762451171875 -185.9536895751953 -183.6615447998047 
454.84722900390625 -182.10403442382812 -190.2670440673828 
462.10772705078125 -179.6110076904297 -197.3523712158203 
471.73065185546875 -178.2333221435547 -204.82762145996094 
483.3962707519531 -177.68466186523438 -212.5314483642578 
496.8215637207031 -177.68667602539062 -220.26072692871094 
511.76507568359375 -178.0123748779297 -227.8141326904297 
527.99462890625 -178.50543212890625 -235.0302276611328 
545.25244140625 -179.07159423828125 -241.79165649414062 
563.2516479492188 -179.66787719726562 -248.00753784179688 
581.7034912109375 -180.30418395996094 -253.61952209472656 
600.3408813476562 -181.0292510986328 -258.6343994140625 
618.9122924804688 -181.8971405029297 -263.1471252441406 
637.1669921875 -182.94566345214844 -267.3395080566406 
654.8507690429688 -184.18377685546875 -271.451416015625 
671.7144775390625 -185.5651092529297 -275.7215881347656 
687.5389404296875 -186.96754455566406 -280.3201599121094 
702.1578369140625 -188.20448303222656 -285.3162841796875 
715.4483032226562 -189.03945922851562 -290.69378662109375 
727.291748046875 -189.19879150390625 -296.3829040527344 
737.5570068359375 -188.423583984375 -302.27496337890625 
746.1258544921875 -186.5314178466797 -308.21954345703125 
752.9310302734375 -183.41468811035156 -314.0163269042969 
757.9794311523438 -179.0055389404297 -319.4227294921875 
761.3475341796875 -173.27972412109375 -324.1940612792969 
763.1433715820312 -166.28204345703125 -328.1309509277344 
763.4662475585938 -158.12765502929688 -331.1050109863281 
762.4013671875 -148.9856414794922 -333.07025146484375 
760.0303955078125 -139.06626892089844 -334.0556335449219 
756.432861328125 -128.6130828857422 -334.13824462890625 
751.6874389648438 -117.88507843017578 -333.428466796875 
745.8828735351562 -107.12335968017578 -332.0738525390625 
739.1304931640625 -96.51988220214844 -330.2599792480469 
731.5640869140625 -86.20121002197266 -328.198486328125 
723.3297729492188 -76.22972869873047 -326.10211181640625 
714.5769653320312 -66.62948608398438 -324.146728515625 
705.4572143554688 -57.42343521118164 -322.43756103515625 
696.1323852539062 -48.64128494262695 -321.0055847167969 
686.7791748046875 -40.2945556640625 -319.837890625 
677.5817260742188 -32.360042572021484 -318.909912109375 
668.725341796875 -24.77847671508789 -318.18408203125 
660.3868408203125 -17.446504592895508 -317.5772399902344 
652.7183227539062 -10.217000961303711 -316.95172119140625 
645.8448486328125 -2.933572292327881 -316.15087890625 
639.8819580078125 4.5062336921691895 -315.0232849121094 
634.9466552734375 12.100086212158203 -313.4016418457031 
631.1381225585938 19.747432708740234 -311.0897521972656 
628.4989013671875 27.30242347717285 -307.8962097167969 
626.9879150390625 34.63137435913086 -303.67730712890625 
626.4885864257812 41.657379150390625 -298.3536376953125 
626.83984375 48.382328033447266 -291.9065246582031 
627.86474609375 54.8800048828125 -284.3665466308594 
629.3788452148438 61.284114837646484 -275.8052978515625 
631.1942138671875 67.78922271728516 -266.3427734375 
633.1311645507812 74.6401596069336 -256.16644287109375 
635.033935546875 82.11027526855469 -245.5291290283203 
636.783203125 90.4900131225586 -234.7159881591797 
638.2994995117188 100.05603790283203 -223.99305725097656 
639.527099609375 111.0057601928711 -213.55313110351562 
640.41064453125 123.39204406738281 -203.49227905273438 
640.87841796875 137.07229614257812 -193.83538818359375 
640.8159790039062 151.6804656982422 -184.57286071777344 
640.0218505859375 166.6385955810547 -175.67080688476562 
638.1844482421875 181.20643615722656 -167.0659637451172 
634.8864135742188 194.5733184814453 -158.66123962402344 
629.6083374023438 205.97671508789062 -150.32505798339844 
621.7599487304688 214.7941131591797 -141.9148406982422 
610.738525390625 220.5933380126953 -133.3269805908203 
595.9366455078125 223.17758178710938 -124.53034973144531 
576.7235107421875 222.63906860351562 -115.55170440673828 
552.5175170898438 219.38282775878906 -106.43185424804688 
522.915771484375 214.08262634277344 -97.19981384277344 
487.75140380859375 207.59378051757812 -87.89483642578125 
447.086181640625 200.87368774414062 -78.61123657226562 
401.1933288574219 194.91775512695312 -69.51346588134766 
350.5495910644531 190.67532348632812 -60.807437896728516 
295.8612365722656 188.9467315673828 -52.696842193603516 
238.07948303222656 190.31175231933594 -45.344451904296875 
178.34010314941406 195.09210205078125 -38.85099411010742 
117.87081909179688 203.31838989257812 -33.263240814208984 
57.9228630065918 214.71116638183594 -28.588329315185547 
-0.29310867190361023 228.70547485351562 -24.78652572631836 
-55.67731857299805 244.53530883789062 -21.752460479736328 
-107.29818725585938 261.3434753417969 -19.309192657470703 
-154.42494201660156 278.2647705078125 -17.22989845275879 
-196.52951049804688 294.48223876953125 -15.279754638671875 
-233.258056640625 309.25885009765625 -13.247053146362305 
-264.39788818359375 321.9452209472656 -10.953163146972656 
-289.8729248046875 332.0149230957031 -8.265995979309082 
-309.7575378417969 339.1280212402344 -5.126640796661377 
-324.27252197265625 343.1444396972656 -1.5677579641342163 
-333.75689697265625 344.085693359375 2.2984554767608643 
-338.634033203125 342.1275939941406 6.322886943817139 
-339.37921142578125 337.5987243652344 10.365360260009766 
-336.4978332519531 330.9052429199219 14.313821792602539 
-330.5320129394531 322.4305419921875 18.08541488647461 
-322.0858154296875 312.4961242675781 21.637407302856445 
-311.8305969238281 301.3643798828125 24.976808547973633 
-300.4654846191406 289.2431945800781 28.145076751708984 
-288.6640625 276.3164367675781 31.19740867614746 
-277.0512390136719 262.79412841796875 34.194786071777344 
-266.19232177734375 248.92681884765625 37.190181732177734 
-256.54815673828125 234.96810913085938 40.21050262451172 
-248.4202117919922 221.13790893554688 43.254127502441406 
-241.9609832763672 207.63369750976562 46.297447204589844 
-237.25714111328125 194.65756225585938 49.301944732666016 
-234.4001922607422 182.40333557128906 52.216583251953125 
-233.482666015625 171.01751708984375 54.97027587890625 
-234.54928588867188 160.57162475585938 57.47414779663086 
-237.5635528564453 151.05291748046875 59.638816833496094 
-242.4253692626953 142.3769073486328 61.38101577758789 
-249.0255584716797 134.4318389892578 62.62440490722656 
-257.2787170410156 127.12680053710938 63.316009521484375 
-267.1082458496094 120.38706970214844 63.441810607910156 
-278.4341735839844 114.12770080566406 63.02432632446289 
-291.2074890136719 108.28191375732422 62.11033630371094 
-305.43243408203125 102.83610534667969 60.74808120727539 
-321.10162353515625 97.78370666503906 58.966773986816406 
-338.0952453613281 93.05961608886719 56.79985046386719 
-356.1629333496094 88.55744934082031 54.34090042114258 
-374.9899597167969 84.18350219726562 51.7674674987793 
-394.2528991699219 79.84976196289062 49.31333923339844 
-413.6410217285156 75.43213653564453 47.22693634033203 
-432.8665466308594 70.77127075195312 45.74081039428711 
-451.6451110839844 65.7112808227539 45.04132080078125 
-469.65399169921875 60.12588119506836 45.238914489746094 
-486.5213317871094 53.92511749267578 46.355674743652344 
-501.8494873046875 47.06667709350586 48.320621490478516 
-515.2205810546875 39.57299041748047 50.96060562133789 
-526.1713256835938 31.548311233520508 53.99805450439453 
-534.1932983398438 23.192840576171875 57.07914733886719 
-538.7908325195312 14.787857055664062 59.84274673461914 
-539.52490234375 6.625064849853516 61.980220794677734 
-535.993408203125 -1.082173228263855 63.239410400390625 
-527.8341674804688 -8.235687255859375 63.41225814819336 
-514.7794189453125 -14.858503341674805 62.349884033203125 
-496.6906433105469 -21.113744735717773 59.98978042602539 
-473.56939697265625 -27.28866958618164 56.381690979003906 
-445.5649719238281 -33.729244232177734 51.729270935058594 
-412.9649658203125 -40.77808380126953 46.41953659057617 
-376.1942443847656 -48.7205924987793 40.959259033203125 
-335.82452392578125 -57.72309875488281 35.818843841552734 
-292.553955078125 -67.78761291503906 31.29781723022461 
-247.162841796875 -78.75631713867188 27.51392364501953 
-200.47006225585938 -90.36946868896484 24.510326385498047 
-153.3052520751953 -102.34403991699219 22.361852645874023 
-106.51560974121094 -114.43045043945312 21.15643882751465 
-60.988773345947266 -126.45204162597656 20.87408447265625 
-17.638525009155273 -138.34617614746094 21.302858352661133 
22.65121841430664 -150.1710968017578 22.091590881347656 
59.08803939819336 -162.0474853515625 22.909690856933594 
91.01893615722656 -174.0821990966797 23.576778411865234 
117.95696258544922 -186.32684326171875 24.061649322509766 
139.5845947265625 -198.7474365234375 24.391817092895508 
155.7499542236328 -211.1843719482422 24.556007385253906 
166.4684600830078 -223.33090209960938 24.44647789001465 
171.91831970214844 -234.73431396484375 23.888935089111328 
172.42288208007812 -244.81051635742188 22.75737190246582 
168.44024658203125 -252.89053344726562 21.06570816040039 
160.5630340576172 -258.3005676269531 18.946752548217773 
149.50457763671875 -260.4617004394531 16.568159103393555 
136.06019592285156 -258.993896484375 14.08842658996582 
121.04679107666016 -253.79953002929688 11.684758186340332 
105.23655700683594 -245.09567260742188 9.60722827911377 
89.29077911376953 -233.37844848632812 8.205925941467285 
73.69617462158203 -219.34835815429688 7.901419639587402 
58.73524475097656 -203.84640502929688 9.091570854187012 
44.49554443359375 -187.79579162597656 12.053720474243164 
30.8834228515625 -172.11990356445312 16.91905403137207 
17.64234161376953 -157.65701293945312 23.710111618041992 
4.383462429046631 -145.10025024414062 32.38846206665039 
-9.375777244567871 -134.96002197265625 42.87580108642578 
-24.135826110839844 -127.54510498046875 55.02888870239258 
-40.32719802856445 -122.96513366699219 68.59028625488281 
-58.289669036865234 -121.15833282470703 83.1717300415039 
-78.30457305908203 -121.93135070800781 98.30461120605469 
-100.62349700927734 -124.97148895263672 113.54270935058594 
-125.47801971435547 -129.8374786376953 128.5620574951172 
-153.05410766601562 -135.98109436035156 143.18350219726562 
-183.4306640625 -142.81422424316406 157.300537109375 
-216.54556274414062 -149.77197265625 170.8064422607422 
-252.22918701171875 -156.32325744628906 183.60560607910156 
-290.2295227050781 -161.9673614501953 195.67312622070312 
-330.1916809082031 -166.2620849609375 207.08131408691406 
-371.66064453125 -168.8473358154297 217.95904541015625 
-414.1245422363281 -169.43887329101562 228.4090576171875 
-457.05364990234375 -167.8099365234375 238.42213439941406 
-499.8956604003906 -163.7633514404297 247.8123779296875 
-542.0092163085938 -157.09645080566406 256.20831298828125 
-582.5804443359375 -147.58485412597656 263.1104736328125 
-620.576171875 -135.01112365722656 267.9326477050781 
-654.7382202148438 -119.24140167236328 269.9736022949219 
-683.6294555664062 -100.31385803222656 268.4334716796875 
-705.7053833007812 -78.47142791748047 262.5714416503906 
-719.3732299804688 -54.12181854248047 251.95729064941406 
-723.1260986328125 -27.783100128173828 236.7407989501953 
-715.7898559570312 -0.08242896944284439 217.87205505371094 
-696.7619018554688 28.162784576416016 197.19248962402344 
-666.1754150390625 55.83066177368164 177.3349151611328 
-624.9921875 81.43101501464844 161.42477416992188 
-575.010009765625 103.1296615600586 152.71514892578125 
-518.7807006835938 118.88902282714844 154.3007049560547 
-459.4490051269531 126.7497329711914 168.8438262939453 
-400.5247497558594 125.20010375976562 198.24197387695312 
-345.6072082519531 113.51879119873047 243.30926513671875 
-298.10107421875 92.01702880859375 303.5062255859375 
-260.9693603515625 62.16985321044922 376.76336669921875 
-236.51300048828125 26.600881576538086 459.5254821777344 
-226.15927124023438 -11.145552635192871 547.0562133789062 
-230.3308868408203 -47.032196044921875 633.8804321289062 
-248.45680236816406 -77.06938171386719 714.2446899414062 
-279.0726623535156 -97.88529205322266 782.6083984375 
-319.9660339355469 -107.23402404785156 834.1452026367188 
-368.379150390625 -104.33424377441406 865.1376342773438 
-421.24151611328125 -89.96247863769531 873.2637329101562 
-475.3962707519531 -66.30426788330078 857.8477783203125 
-527.809814453125 -36.63212585449219 819.9844970703125 
-575.7476196289062 -4.843716144561768 762.3861694335938 
-616.916748046875 25.117185592651367 689.0023803710938 
-649.5977783203125 49.844642639160156 604.5899047851562 
-672.765869140625 66.92022705078125 514.3411254882812 
-686.1471557617188 75.14979553222656 423.560546875 
-690.1732788085938 74.61146545410156 337.3250732421875 
-685.8679809570312 66.5890121459961 260.10296630859375 
-674.694091796875 53.3774528503418 195.3920135498047 
-658.3527221679688 37.94446563720703 145.47616577148438 
-638.55322265625 23.52518653869629 111.35714721679688 
-616.8245239257812 13.210047721862793 92.84625244140625 
-594.3904418945312 9.568022727966309 88.73863220214844 
-572.0535278320312 14.366044044494629 96.99029541015625 
-550.1123046875 28.41392707824707 114.89830017089844 
-528.3697509765625 51.540184020996094 139.3171844482422 
-506.21539306640625 82.65770721435547 166.90472412109375 
-482.7525329589844 119.86676025390625 194.37567138671875 
-456.93231201171875 160.62464904785156 218.75209045410156 
-427.62994384765625 202.00547790527344 237.5797119140625 
-393.69171142578125 240.9926300048828 249.07350158691406 
-354.03607177734375 274.7624816894531 252.19534301757812 
-307.7724609375 300.9521179199219 246.67300415039062 
-254.2604522705078 317.85870361328125 232.9486846923828 
-193.15135192871094 324.5020751953125 212.07293701171875 
-124.44352722167969 320.58551025390625 185.57847595214844 
-48.502845764160156 306.456787109375 155.34503173828125 
33.93042755126953 283.0671691894531 123.45455932617188 
121.74749755859375 251.84349060058594 92.0368881225586 
213.54440307617188 214.48426818847656 63.111480712890625 
307.7057800292969 172.79324340820312 38.42990493774414 
402.4441833496094 128.58135986328125 19.325607299804688 
495.84674072265625 83.56428527832031 6.606383800506592 
585.93212890625 39.25087356567383 0.5315057635307312 
670.6892700195312 -3.1079859733581543 0.8692890405654907 
748.1290283203125 -42.512088775634766 6.992548942565918 
816.374267578125 -78.20877075195312 17.963848114013672 
873.7788696289062 -109.68757629394531 32.59128189086914 
919.0267333984375 -136.63766479492188 49.49353790283203 
951.194091796875 -158.9186553955078 67.21800994873047 
969.8275756835938 -176.58432006835938 84.3870620727539 
974.9985961914062 -189.88284301757812 99.81756591796875 
967.2447509765625 -199.16493225097656 112.58916473388672 
947.4489135742188 -204.7634735107422 122.05599975585938 
916.7523193359375 -206.93931579589844 127.81949615478516 
876.512451171875 -205.88595581054688 129.69509887695312 
828.3045043945312 -201.7612762451172 127.69071197509766 
773.9202880859375 -194.73919677734375 121.99878692626953 
715.283203125 -185.0362548828125 112.98023986816406 
654.3141479492188 -172.89979553222656 101.11396026611328 
592.8367309570312 -158.62220764160156 86.9207534790039 
532.52685546875 -142.59909057617188 70.8883056640625 
474.88031005859375 -125.35874938964844 53.436126708984375 
421.19549560546875 -107.53199005126953 34.952476501464844 
372.56365966796875 -89.81428527832031 15.852456092834473 
329.8562927246094 -72.94075012207031 -3.4313125610351562 
293.71942138671875 -57.641998291015625 -22.52061653137207 
264.5750732421875 -44.573097229003906 -41.134883880615234 
242.60733032226562 -34.2420654296875 -59.0615234375 
227.7328643798828 -26.960472106933594 -76.11104583740234 
219.58836364746094 -22.8177490234375 -92.10829162597656 
217.5648956298828 -21.674781799316406 -106.9128646850586 
220.87001037597656 -23.1947021484375 -120.45243072509766 
228.5868682861328 -26.924985885620117 -132.74114990234375 
239.74163818359375 -32.39581298828125 -143.87921142578125 
253.39036560058594 -39.178382873535156 -154.05841064453125 
268.6915283203125 -46.88103485107422 -163.55032348632812 
284.93780517578125 -55.12127685546875 -172.66131591796875 
301.5440673828125 -63.529579162597656 -181.68572998046875 
318.0008239746094 -71.79167175292969 -190.85711669921875 
333.8398742675781 -79.68081665039062 -200.3046417236328 
348.6463623046875 -87.0287857055664 -210.06027221679688 
362.0854797363281 -93.66033935546875 -220.1128692626953 
373.91290283203125 -99.36212921142578 -230.45855712890625 
383.977783203125 -103.89214324951172 -241.12051391601562 
392.2200622558594 -106.99101257324219 -252.1337890625 
398.65716552734375 -108.39002227783203 -263.51336669921875 
403.36663818359375 -107.83573150634766 -275.2494201660156 
406.44573974609375 -105.1269302368164 -287.32928466796875 
407.95208740234375 -100.14419555664062 -299.7315979003906 
407.8940734863281 -92.86422729492188 -312.4077453613281 
406.2923278808594 -83.3638687133789 -325.2976989746094 
403.2483215332031 -71.81848907470703 -338.34490966796875 
398.96026611328125 -58.476234436035156 -351.49163818359375 
393.6910095214844 -43.612205505371094 -364.6835021972656 
387.7210998535156 -27.51199722290039 -377.8669738769531 
381.3081359863281 -10.472614288330078 -390.9620361328125 
374.6615905761719 7.228957653045654 -403.8452453613281 
367.93780517578125 25.369674682617188 -416.3629150390625 
361.24957275390625 43.782493591308594 -428.3522033691406 
354.6866760253906 62.35038375854492 -439.6480407714844 
348.35235595703125 80.99964904785156 -450.08831787109375 
342.3965759277344 99.69139099121094 -459.5305480957031 
337.00579833984375 118.41644287109375 -467.8834533691406 
332.3658447265625 137.1752166748047 -475.1321716308594 
328.6543884277344 155.93582153320312 -481.3225402832031 
326.07012939453125 174.6039581298828 -486.5242919921875 
324.85693359375 193.03245544433594 -490.82373046875 
325.29876708984375 211.04373168945312 -494.35107421875 
327.7074279785156 228.43234252929688 -497.309326171875 
332.4199523925781 244.94973754882812 -499.9508056640625 
339.7906494140625 260.2835388183594 -502.47430419921875 
350.1612548828125 274.0891418457031 -504.8974609375 
363.8058776855469 286.1034240722656 -507.0046691894531 
380.87896728515625 296.2264404296875 -508.4261169433594 
401.417724609375 304.5159606933594 -508.79351806640625 
425.3773193359375 311.1923522949219 -507.8508605957031 
452.61895751953125 316.65850830078125 -505.4658203125 
482.87762451171875 321.4444274902344 -501.5957336425781 
515.7732543945312 326.08636474609375 -496.2758483886719 
550.8262329101562 331.02667236328125 -489.62811279296875 
587.4663696289062 336.5656433105469 -481.8551940917969 
625.0914916992188 342.83782958984375 -473.2240295410156 
663.146728515625 349.7945861816406 -464.0572204589844 
701.1472778320312 357.2059326171875 -454.7188720703125 
738.6699829101562 364.7140197753906 -445.5774841308594 
775.3704833984375 371.9435119628906 -436.9537048339844 
810.9845581054688 378.62249755859375 -429.07379150390625 
845.281494140625 384.6578674316406 -422.03912353515625 
878.0150146484375 390.1221008300781 -415.80322265625 
908.8897705078125 395.1410217285156 -410.1659851074219 
937.5369262695312 399.7454528808594 -404.7932434082031 
963.4828491210938 403.7964782714844 -399.2486267089844 
986.1177368164062 407.0008239746094 -393.0384521484375 
1004.69580078125 408.92864990234375 -385.6681213378906 
1018.3706665039062 409.02935791015625 -376.6977844238281 
1026.237060546875 406.7309265136719 -365.8009338378906 
1027.3773193359375 401.6125183105469 -352.8267517089844 
1020.9058837890625 393.54376220703125 -337.8354187011719 
1006.032958984375 382.7338562011719 -321.0882568359375 
982.184814453125 369.7185363769531 -303.0080871582031 
949.10986328125 355.3306884765625 -284.1274108886719 
906.8856201171875 340.63836669921875 -265.029296875 
855.8927612304688 326.80194091796875 -246.29205322265625 
796.8079223632812 314.89996337890625 -228.44622802734375 
730.5729370117188 305.8122253417969 -211.934326171875 
658.3781127929688 300.1394958496094 -197.0715789794922 
581.6427612304688 298.1374816894531 -184.01248168945312 
501.9091491699219 299.7122802734375 -172.7318115234375 
420.7171630859375 304.47161865234375 -163.04429626464844 
339.5403747558594 311.7867126464844 -154.6712646484375 
259.7429504394531 320.8512878417969 -147.30960083007812 
182.54248046875 330.744384765625 -140.66061401367188 
108.98793029785156 340.5003967285156 -134.4376678466797 
39.91952133178711 349.18365478515625 -128.390625 
-24.066730499267578 355.9499206542969 -122.34751892089844 
-82.60083770751953 360.0850830078125 -116.24735260009766 
-135.5027618408203 361.0306091308594 -110.14686584472656 
-182.76409912109375 358.4101867675781 -104.19080352783203 
-224.51287841796875 352.0745544433594 -98.554931640625 
-260.96539306640625 342.1328125 -93.39509582519531 
-292.4188537597656 328.9178771972656 -88.82569122314453 
-319.27252197265625 312.9217224121094 -84.924072265625 
-342.0207824707031 294.7535705566406 -81.74270629882812 
-361.20556640625 275.09423828125 -79.31240844726562 
-377.3596496582031 254.62205505371094 -77.63224792480469 
-390.9772644042969 233.9408721923828 -76.65087890625 
-402.51129150390625 213.541259765625 -76.24786376953125 
-412.3564147949219 193.78355407714844 -76.24395751953125 
-420.8132629394531 174.88043212890625 -76.45677185058594 
-428.0870056152344 156.90122985839844 -76.7538070678711 
-434.3336486816406 139.81443786621094 -77.0487289428711 
-439.7062683105469 123.52510070800781 -77.25439453125 
-444.36810302734375 107.87428283691406 -77.24790954589844 
-448.48455810546875 92.64498138427734 -76.88848114013672 
-452.21356201171875 77.61945343017578 -76.07796478271484 
-455.6960754394531 62.6363410949707 -74.8046646118164 
-459.0563049316406 47.59231948852539 -73.13877868652344 
-462.42327880859375 32.434635162353516 -71.20256805419922 
-465.95263671875 17.176555633544922 -69.13359832763672 
-469.8137512207031 1.9014869928359985 -67.06106567382812 
-474.13873291015625 -13.257262229919434 -65.12013244628906 
-478.9797668457031 -28.16172981262207 -63.47799301147461 
-484.3170166015625 -42.72099685668945 -62.333946228027344 
-490.0997314453125 -56.88636016845703 -61.896018981933594 
-496.27545166015625 -70.58673095703125 -62.34160232543945 
-502.7813720703125 -83.69607543945312 -63.781070709228516 
-509.5179443359375 -96.07845306396484 -66.2419662475586 
-516.3519287109375 -107.63894653320312 -69.6512680053711 
-523.1519775390625 -118.32229614257812 -73.81459045410156 
-529.8070068359375 -128.0987091064453 -78.44047546386719 
-536.2025146484375 -136.9628143310547 -83.21588134765625 
-542.189697265625 -144.92483520507812 -87.87193298339844 
-547.5878295898438 -152.005859375 -92.20455169677734 
-552.21142578125 -158.2459716796875 -96.07144165039062 
-555.8742065429688 -163.70880126953125 -99.38927459716797 
-558.36328125 -168.4682159423828 -102.1341781616211 
-559.4392700195312 -172.5738067626953 -104.33999633789062 
-558.8626098632812 -176.04844665527344 -106.09014892578125 
-556.380615234375 -178.94033813476562 -107.50828552246094 
-551.704833984375 -181.33828735351562 -108.7446060180664 
-544.5432739257812 -183.3253936767578 -109.94998931884766 
-534.6377563476562 -184.96231079101562 -111.25587463378906 
-521.7564086914062 -186.3186798095703 -112.76752471923828 
-505.6989440917969 -187.48294067382812 -114.54118347167969 
-486.3202819824219 -188.5472412109375 -116.55823516845703 
-463.53656005859375 -189.61495971679688 -118.73974609375 
-437.34814453125 -190.7984619140625 -120.98489379882812 
-407.87567138671875 -192.17164611816406 -123.20098876953125 
-375.3556213378906 -193.74542236328125 -125.31966400146484 
-340.12322998046875 -195.51007080078125 -127.2916030883789 
-302.6036682128906 -197.4800262451172 -129.0575408935547 
-263.2843322753906 -199.67930603027344 -130.51451110839844 
-222.69090270996094 -202.09652709960938 -131.5208740234375 
-181.37435913085938 -204.66993713378906 -131.95819091796875 
-139.8762969970703 -207.31019592285156 -131.7926483154297 
-98.69902038574219 -209.9230499267578 -131.07232666015625 
-58.31843948364258 -212.4170379638672 -129.8673095703125 
-19.204221725463867 -214.7200164794922 -128.2156982421875 
18.19074058532715 -216.78485107421875 -126.12940216064453 
53.439453125 -218.55108642578125 -123.64530181884766 
86.13359832763672 -219.9138946533203 -120.85926055908203 
115.90422058105469 -220.7498321533203 -117.91683959960938 
142.47706604003906 -220.95669555664062 -114.98350524902344 
165.7049560546875 -220.46412658691406 -112.21109008789062 
185.5397491455078 -219.2401580810547 -109.710693359375 
201.97393798828125 -217.31434631347656 -107.5521469116211 
215.00753784179688 -214.77691650390625 -105.78446960449219 
224.65988159179688 -211.73597717285156 -104.44766235351562 
231.00852966308594 -208.28689575195312 -103.56301879882812 
234.21319580078125 -204.53492736816406 -103.109619140625 
234.49290466308594 -200.6341552734375 -103.00385284423828 
232.09292602539062 -196.77688598632812 -103.11148071289062 
227.2877960205078 -193.1289520263672 -103.30249786376953 
220.38694763183594 -189.7672882080078 -103.49674987792969 
211.70387268066406 -186.66494750976562 -103.64732360839844 
201.5147247314453 -183.72462463378906 -103.69622802734375 
190.04513549804688 -180.82867431640625 -103.5637435913086 
177.4937286376953 -177.8692169189453 -103.17106628417969 
164.06411743164062 -174.75282287597656 -102.45768737792969 
149.96852111816406 -171.4033203125 -101.38807678222656 
135.40415954589844 -167.78273010253906 -99.97076416015625 
120.53148651123047 -163.90615844726562 -98.26626586914062 
105.46141815185547 -159.81532287597656 -96.34513854980469 
90.25642395019531 -155.54058837890625 -94.23330688476562 
74.95397186279297 -151.1072540283203 -91.9118423461914 
59.57915496826172 -146.56651306152344 -89.36007690429688 
44.1239013671875 -142.0012969970703 -86.5810317993164 
28.546674728393555 -137.51553344726562 -83.59404754638672 
12.826156616210938 -133.2211456298828 -80.41485595703125 
-2.997729778289795 -129.21563720703125 -77.03814697265625 
-18.849782943725586 -125.56232452392578 -73.44823455810547 
-34.66360855102539 -122.303466796875 -69.65664672851562 
-50.40347671508789 -119.48817443847656 -65.71598815917969 
-66.08451843261719 -117.15275573730469 -61.69239807128906 
-81.77689361572266 -115.2768325805664 -57.63455581665039 
-97.57866668701172 -113.80176544189453 -53.55799102783203 
-113.5881576538086 -112.6772689819336 -49.435768127441406 
-129.88784790039062 -111.84303283691406 -45.20525360107422 
-146.536865234375 -111.1773910522461 -40.808868408203125 
-163.57606506347656 -110.50177001953125 -36.25128936767578 
-181.03456115722656 -109.63381958007812 -31.60996437072754 
-198.92324829101562 -108.42658996582031 -26.967233657836914 
-217.2178955078125 -106.78369140625 -22.343257904052734 
-235.84327697753906 -104.67085266113281 -17.718372344970703 
-254.6755828857422 -102.11248779296875 -13.10427474975586 
-273.5788269042969 -99.16354370117188 -8.567384719848633 
-292.4427795410156 -95.88703155517578 -4.188948154449463 
-311.1655578613281 -92.35176849365234 -0.01182918343693018 
-329.6177978515625 -88.62129211425781 3.9849703311920166 
-347.661376953125 -84.735107421875 7.864548206329346 
-365.1828308105469 -80.72473907470703 11.683916091918945 
-382.0897216796875 -76.66004180908203 15.468047142028809 
-398.3013000488281 -72.66162109375 19.216228485107422 
-413.7703857421875 -68.84534454345703 22.919069290161133 
-428.520751953125 -65.24404907226562 26.575796127319336 
-442.65728759765625 -61.77627182006836 30.203889846801758 
-456.3215637207031 -58.2928466796875 33.82765579223633 
-469.6064147949219 -54.67405319213867 37.451698303222656 
-482.4964599609375 -50.89760971069336 41.04941177368164 
-494.89508056640625 -47.01444625854492 44.58027648925781 
-506.7025146484375 -43.079994201660156 48.0137939453125 
-517.85986328125 -39.127967834472656 51.338356018066406 
-528.3340454101562 -35.18316650390625 54.56386947631836 
-538.0857543945312 -31.263046264648438 57.72054672241211 
-547.0671997070312 -27.36505699157715 60.83159255981445 
-555.2400512695312 -23.4732666015625 63.8787841796875 
-562.580810546875 -19.596660614013672 66.81502532958984 
-569.0728149414062 -15.796360969543457 69.6270751953125 
-574.7061157226562 -12.159796714782715 72.38215637207031 
-579.4813842773438 -8.756756782531738 75.1907730102539 
-583.4109497070312 -5.62275505065918 78.11107635498047 
-586.5151977539062 -2.7532057762145996 81.09456634521484 
-588.80810546875 -0.10229441523551941 84.022705078125 
-590.2760620117188 2.3910751342773438 86.7893295288086 
-590.8683471679688 4.771051406860352 89.36234283447266 
-590.5070190429688 7.055726528167725 91.7894058227539 
-589.1109008789062 9.229976654052734 94.14041137695312 
-586.6097412109375 11.227057456970215 96.43413543701172 
-582.9442749023438 12.938009262084961 98.62699127197266 
-578.0741577148438 14.275603294372559 100.67311096191406 
-571.994384765625 15.237835884094238 102.59590911865234 
-564.730712890625 15.89609432220459 104.5096206665039 
-556.32177734375 16.34601593017578 106.5656967163086 
-546.8261108398438 16.70735740661621 108.85768127441406 
-536.3385620117188 17.141971588134766 111.36212921142578 
-524.9842529296875 17.81562614440918 113.96490478515625 
-512.9007568359375 18.830469131469727 116.54313659667969 
-500.23187255859375 20.196712493896484 119.03487396240234 
-487.1253356933594 21.854934692382812 121.45064544677734 
-473.7148132324219 23.71321678161621 123.82805633544922 
-460.09686279296875 25.671489715576172 126.18053436279297 
-446.32965087890625 27.63957977294922 128.49087524414062 
-432.44647216796875 29.549774169921875 130.74234008789062 
-418.45947265625 31.355785369873047 132.9410400390625 
-404.3677673339844 33.03443145751953 135.10682678222656 
-390.1936340332031 34.594459533691406 137.25637817382812 
-376.01165771484375 36.07188415527344 139.40756225585938 
-361.9114074707031 37.513126373291016 141.5908966064453 
-347.9194641113281 38.96017074584961 143.8373260498047 
-333.97955322265625 40.43030548095703 146.1461639404297 
-320.0188293457031 41.90743637084961 148.46934509277344 
-306.0266418457031 43.37574768066406 150.7311553955078 
-292.0819091796875 44.854103088378906 152.8573455810547 
-278.3265380859375 46.387168884277344 154.7884521484375 
-264.9170227050781 48.02157974243164 156.48751831054688 
-251.98646545410156 49.789180755615234 157.9452362060547 
-239.62161254882812 51.69361877441406 159.16917419433594 
-227.85223388671875 53.7169075012207 160.17315673828125 
-216.64080810546875 55.83908462524414 160.9826202392578 
-205.86663818359375 58.033409118652344 161.630126953125 
-195.35476684570312 60.25660705566406 162.1381072998047 
-184.98129272460938 62.475379943847656 162.518798828125 
-174.7558135986328 64.69285583496094 162.7845916748047 
-164.7746124267578 66.92742919921875 162.94984436035156 
-155.10076904296875 69.17780303955078 163.0341033935547 
-145.7081756591797 71.42142486572266 163.0727996826172 
-136.52621459960938 73.62911987304688 163.1220245361328 
-127.50371551513672 75.76637268066406 163.24668884277344 
-118.62055969238281 77.7953109741211 163.49803161621094 
-109.8717041015625 79.69730377197266 163.9000244140625 
-101.26765441894531 81.48339080810547 164.45046997070312 
-92.84059143066406 83.16583251953125 165.12782287597656 
-84.6370620727539 84.7384262084961 165.8939208984375 
-76.7066879272461 86.19738006591797 166.693115234375 
-69.0905990600586 87.54524993896484 167.46670532226562 
-61.8039436340332 88.75263214111328 168.1749725341797 
-54.825164794921875 89.75112915039062 168.79452514648438 
-48.098575592041016 90.48011779785156 169.29092407226562 
-41.536563873291016 90.91293334960938 169.58851623535156 
-35.028175354003906 91.04121398925781 169.5654296875 
-28.473501205444336 90.87150573730469 169.0944061279297 
-21.820877075195312 90.43934631347656 168.10333251953125 
-15.067159652709961 89.79682922363281 166.60348510742188 
-8.23271369934082 88.98868560791016 164.66976928710938 
-1.3474169969558716 88.05662536621094 162.40274047851562 
5.554511070251465 87.049560546875 159.89549255371094 
12.452995300292969 86.00554656982422 157.21568298339844 
19.362499237060547 84.9239730834961 154.43357849121094 
26.328493118286133 83.76783752441406 151.67449951171875 
33.40199661254883 82.49842834472656 149.11904907226562 
40.60776138305664 81.1026382446289 146.93914794921875 
47.9210205078125 79.59453582763672 145.22018432617188 
55.264373779296875 78.01716613769531 143.93475341796875 
62.54065704345703 76.43472290039062 142.9933319091797 
69.68832397460938 74.89098358154297 142.31808471679688 
76.69764709472656 73.38624572753906 141.88519287109375 
83.57746887207031 71.91464233398438 141.71435546875 
90.32351684570312 70.50933074951172 141.81134033203125 
96.92415618896484 69.23615264892578 142.1156463623047 
103.38543701171875 68.1512680053711 142.51258850097656 
109.70398712158203 67.27281188964844 142.90335083007812 
115.80635070800781 66.57378387451172 143.25782775878906 
121.56558990478516 65.98487854003906 143.595458984375 
126.88478088378906 65.41696166992188 143.9290313720703 
131.73924255371094 64.7916259765625 144.23458862304688 
136.15740966796875 64.0413818359375 144.4487762451172 
140.19253540039062 63.09171676635742 144.47918701171875 
143.908447265625 61.87677764892578 144.2490692138672 
147.37258911132812 60.37409210205078 143.75038146972656 
150.6543731689453 58.60588455200195 143.04298400878906 
153.82464599609375 56.60930252075195 142.2088623046875 
156.94285583496094 54.41331100463867 141.3103790283203 
160.0399627685547 52.03863525390625 140.37351989746094 
163.12440490722656 49.502925872802734 139.3922576904297 
166.20611572265625 46.821624755859375 138.34329223632812 
169.3017120361328 44.02242660522461 137.20164489746094 
172.40603637695312 41.16644287109375 135.9578399658203 
175.47628784179688 38.34315872192383 134.6274871826172 
178.4593048095703 35.64047622680664 133.2431640625 
181.3246612548828 33.123191833496094 131.84063720703125 
184.06878662109375 30.833925247192383 130.4513397216797 
186.7010040283203 28.792144775390625 129.09922790527344 
189.2365264892578 26.976974487304688 127.8010482788086 
191.7017822265625 25.323612213134766 126.5672836303711 
194.1358642578125 23.752853393554688 125.39767456054688 
196.57411193847656 22.196041107177734 124.27661895751953 
199.02655029296875 20.578689575195312 123.17940521240234 
201.47535705566406 18.801738739013672 122.0860366821289 
203.900634765625 16.767030715942383 120.98851776123047 
206.31141662597656 14.42218017578125 119.89250183105469 
208.7509307861328 11.77966022491455 118.81864166259766 
211.28758239746094 8.892873764038086 117.792236328125 
214.01600646972656 5.812836170196533 116.82252502441406 
217.0557098388672 2.5685293674468994 115.89801025390625 
220.52955627441406 -0.826630175113678 114.99806213378906 
224.52976989746094 -4.3730902671813965 114.10074615478516 
229.09266662597656 -8.087971687316895 113.1916275024414 
234.1993408203125 -11.987902641296387 112.2794189453125 
239.78482055664062 -16.06443214416504 111.39986419677734 
245.7424774169922 -20.28400421142578 110.59001922607422 
251.95179748535156 -24.609907150268555 109.8530044555664 
258.3270263671875 -29.009418487548828 109.16082763671875 
264.83343505859375 -33.42085266113281 108.50102233886719 
271.46258544921875 -37.726566314697266 107.91217803955078 
278.2035827636719 -41.79505920410156 107.46343231201172 
285.0106201171875 -45.548667907714844 107.2091293334961 
291.7722473144531 -48.9730339050293 107.17393493652344 
298.33355712890625 -52.091224670410156 107.36155700683594 
304.55743408203125 -54.957923889160156 107.7610092163086 
310.35089111328125 -57.647430419921875 108.35757446289062 
315.6478271484375 -60.219764709472656 109.14484405517578 
320.397216796875 -62.71390914916992 110.10680389404297 
324.568359375 -65.17009735107422 111.18255615234375 
328.1444396972656 -67.62384033203125 112.27063751220703 
331.10693359375 -70.07441711425781 113.2658920288086 
333.4361267089844 -72.48405456542969 114.079833984375 
335.1256408691406 -74.81118774414062 114.6431884765625 
336.19683837890625 -77.03109741210938 114.90982055664062 
336.7095642089844 -79.12895965576172 114.86241912841797 
336.76153564453125 -81.0914535522461 114.5101089477539 
336.4631042480469 -82.90408325195312 113.88333129882812 
335.8842468261719 -84.53626251220703 113.04251098632812 
335.019775390625 -85.9296875 112.08808898925781 
333.8190612792969 -87.023193359375 111.1435546875 
332.2305603027344 -87.78450012207031 110.31846618652344 
330.2059631347656 -88.19688415527344 109.68478393554688 
327.7049255371094 -88.24244689941406 109.27168273925781 
324.7294616699219 -87.94495391845703 109.06646728515625 
321.3367614746094 -87.40953063964844 109.03311157226562 
317.6039123535156 -86.77745819091797 109.1385498046875 
313.5933837890625 -86.14973449707031 109.35144805908203 
309.35357666015625 -85.56704711914062 109.6224136352539 
304.9317626953125 -85.02802276611328 109.88365936279297 
300.37738037109375 -84.49430084228516 110.0706787109375 
295.73736572265625 -83.89606475830078 110.13400268554688 
291.05902099609375 -83.1671142578125 110.03050231933594 
286.39703369140625 -82.28224182128906 109.72266387939453 
281.80572509765625 -81.24651336669922 109.201171875 
277.3351135253906 -80.05633544921875 108.5008316040039 
273.0452575683594 -78.69888305664062 107.68251037597656 
269.00115966796875 -77.17967224121094 106.8058090209961 
265.24261474609375 -75.52510070800781 105.91998291015625 
261.7764587402344 -73.77586364746094 105.06051635742188 
258.60260009765625 -72.00078582763672 104.24046325683594 
255.72601318359375 -70.2942123413086 103.44828796386719 
253.13844299316406 -68.7366714477539 102.65624237060547 
250.8125762939453 -67.37378692626953 101.83512878417969 
248.7189483642578 -66.22264099121094 100.97482299804688 
246.8365020751953 -65.25958251953125 100.09384155273438 
245.14602661132812 -64.42017364501953 99.22307586669922 
243.61199951171875 -63.64502716064453 98.38604736328125 
242.17108154296875 -62.91437911987305 97.59685516357422 
240.74130249023438 -62.22549057006836 96.86331176757812 
239.24481201171875 -61.552669525146484 96.18246459960938 
237.63372802734375 -60.85378646850586 95.52980041503906 
235.90428161621094 -60.10849380493164 94.85611724853516 
234.08474731445312 -59.319541931152344 94.10894775390625 
232.21131896972656 -58.48324203491211 93.25939178466797 
230.3181610107422 -57.58827209472656 92.30094146728516 
228.4456024169922 -56.63651657104492 91.2386474609375 
226.649658203125 -55.63633728027344 90.099853515625 
224.9979705810547 -54.57615280151367 88.94281768798828 
223.5482177734375 -53.42743682861328 87.83721160888672 
222.32672119140625 -52.18118667602539 86.837158203125 
221.32896423339844 -50.86732482910156 85.96941375732422 
220.5341033935547 -49.5400276184082 85.23483276367188 
219.91453552246094 -48.27110290527344 84.62130737304688 
219.42840576171875 -47.14732360839844 84.12065887451172 
219.00149536132812 -46.23265075683594 83.72901153564453 
218.5287322998047 -45.52227020263672 83.4317855834961 
217.90264892578125 -44.93827438354492 83.1893310546875 
217.0382537841797 -44.363075256347656 82.93350219726562 
215.87876892089844 -43.67703628540039 82.58889770507812 
214.40048217773438 -42.78933334350586 82.11253356933594 
212.6139373779297 -41.66280746459961 81.51332092285156 
210.53839111328125 -40.32123565673828 80.8279037475586 
208.1745147705078 -38.842227935791016 80.07978057861328 
205.51502990722656 -37.34934997558594 79.26211547851562 
202.57351684570312 -35.98512649536133 78.35224914550781 
199.387451171875 -34.845428466796875 77.34034729003906 
196.0010986328125 -33.92728042602539 76.23992156982422 
192.46205139160156 -33.15489196777344 75.07213592529297 
188.826171875 -32.45354461669922 73.85619354248047 
185.15277099609375 -31.792407989501953 72.61158752441406 
181.4956512451172 -31.176197052001953 71.3502426147461 
177.9020538330078 -30.629793167114258 70.07723999023438 
174.42356872558594 -30.193750381469727 68.812255859375 
171.1211395263672 -29.900005340576172 67.59190368652344 
168.05081176757812 -29.741506576538086 66.43521881103516 
165.260498046875 -29.686952590942383 65.31238555908203 
162.8079833984375 -29.71588706970215 64.15457916259766 
160.7523956298828 -29.817968368530273 62.889957427978516 
159.12396240234375 -29.98299217224121 61.47636032104492 
157.92686462402344 -30.215360641479492 59.92060470581055 
157.16818237304688 -30.535642623901367 58.27417755126953 
156.87066650390625 -30.955913543701172 56.604103088378906 
157.068603515625 -31.474899291992188 54.9614143371582 
157.7893524169922 -32.0947380065918 53.37876892089844 
159.01788330078125 -32.81201171875 51.89687728881836 
160.6736297607422 -33.58183670043945 50.576332092285156 
162.63038635253906 -34.31330871582031 49.47528839111328 
164.76553344726562 -34.925567626953125 48.62529373168945 
166.98841857910156 -35.3992919921875 48.02726364135742 
169.2323760986328 -35.765621185302734 47.6585578918457 
171.4561767578125 -36.07101058959961 47.47871780395508 
173.66761779785156 -36.357574462890625 47.42388153076172 
175.9183807373047 -36.65249252319336 47.39834976196289 
178.25254821777344 -36.97102355957031 47.288116455078125 
180.66859436035156 -37.33293533325195 46.99961471557617 
183.14002990722656 -37.759552001953125 46.49446487426758 
185.65354919433594 -38.248146057128906 45.78815460205078 
188.2184600830078 -38.77920150756836 44.91403579711914 
190.86351013183594 -39.36378479003906 43.88563919067383 
193.6317138671875 -40.05054473876953 42.69447326660156 
196.55361938476562 -40.86675262451172 41.354801177978516 
199.61851501464844 -41.779815673828125 39.949039459228516 
202.7849578857422 -42.73738479614258 38.60567855834961 
206.00831604003906 -43.72296142578125 37.422271728515625 
209.24676513671875 -44.75650405883789 36.415401458740234 
212.4590301513672 -45.868324279785156 35.526153564453125 
215.6060028076172 -47.07698440551758 34.65751647949219 
218.64390563964844 -48.35615921020508 33.739376068115234 
221.5172882080078 -49.622520446777344 32.78328323364258 
224.1749725341797 -50.782859802246094 31.864185333251953 
226.59735107421875 -51.7861328125 31.04752540588379 
228.798095703125 -52.6165771484375 30.33424949645996 
230.8087921142578 -53.262474060058594 29.665719985961914 
232.68084716796875 -53.721839904785156 28.97943878173828 
234.49082946777344 -54.02714538574219 28.259984970092773 
236.32093811035156 -54.2335319519043 27.53219223022461 
238.23008728027344 -54.370033264160156 26.809961318969727 
240.24417114257812 -54.416748046875 26.059917449951172 
242.3628692626953 -54.333438873291016 25.216773986816406 
244.56517028808594 -54.077884674072266 24.242595672607422 
246.8169708251953 -53.5947380065918 23.175073623657227 
249.0883026123047 -52.83673858642578 22.112369537353516 
251.35951232910156 -51.812408447265625 21.161087036132812 
253.6057586669922 -50.59043502807617 20.392860412597656 
255.79165649414062 -49.25952911376953 19.813003540039062 
257.8982238769531 -47.897090911865234 19.35976791381836 
259.9469299316406 -46.56583786010742 18.950214385986328 
261.98291015625 -45.31969451904297 18.531715393066406 
264.0360107421875 -44.20869064331055 18.091224670410156 
266.0836486816406 -43.26856994628906 17.630882263183594 
268.0292663574219 -42.48289108276367 17.15381622314453 
269.7282409667969 -41.770957946777344 16.67376136779785 
271.0590515136719 -41.04946517944336 16.224119186401367 
271.9760437011719 -40.294498443603516 15.851819038391113 
272.4899597167969 -39.51944351196289 15.601105690002441 
272.6162414550781 -38.72226333618164 15.494251251220703 
272.3555908203125 -37.886878967285156 15.517779350280762 
271.7066650390625 -37.005348205566406 15.628166198730469 
270.678955078125 -36.05347442626953 15.777586936950684 
269.28839111328125 -34.94760513305664 15.93095874786377 
267.5473327636719 -33.551918029785156 16.061004638671875 
265.4764404296875 -31.738859176635742 16.144315719604492 
263.1228942871094 -29.45504379272461 16.170658111572266 
260.5508728027344 -26.7537899017334 16.154146194458008 
257.8233947753906 -23.781131744384766 16.127302169799805 
254.99273681640625 -20.724239349365234 16.109533309936523 
252.08163452148438 -17.747081756591797 16.081138610839844 
249.0635528564453 -14.947127342224121 16.002010345458984 
245.8787841796875 -12.350678443908691 15.858002662658691 
242.47463989257812 -9.935088157653809 15.683011054992676 
238.8086700439453 -7.657269477844238 15.539449691772461 
234.8162841796875 -5.488123893737793 15.478625297546387 
230.40557861328125 -3.4498443603515625 15.51120376586914 
225.48629760742188 -1.6121680736541748 15.60997200012207 
219.9950408935547 -0.03192463517189026 15.734375 
213.90667724609375 1.303197979927063 15.863091468811035 
207.23582458496094 2.4769234657287598 16.022113800048828 
200.02198791503906 3.6046979427337646 16.263574600219727 
192.3072052001953 4.782351493835449 16.594966888427734 
184.12808227539062 6.0486578941345215 16.92660140991211 
175.52293395996094 7.380561351776123 17.096405029296875 
166.5303192138672 8.719783782958984 16.971342086791992 
157.1794891357422 10.010425567626953 16.532703399658203 
147.49728393554688 11.226123809814453 15.857563972473145 
137.51560974121094 12.385831832885742 15.039018630981445 
127.2554702758789 13.559081077575684 14.134614944458008 
116.72431182861328 14.842168807983398 13.165003776550293 
105.95024871826172 16.313873291015625 12.133519172668457 
95.01144409179688 18.012229919433594 11.042996406555176 
84.0241928100586 19.942243576049805 9.91380786895752 
73.10697937011719 22.083642959594727 8.801958084106445 
62.358619689941406 24.3887996673584 7.7963762283325195 
51.85713195800781 26.800012588500977 6.997251033782959 
41.66640853881836 29.28558921813965 6.494333267211914 
31.843265533447266 31.8526611328125 6.335172653198242 
22.439363479614258 34.527122497558594 6.4903950691223145 
13.494623184204102 37.32598876953125 6.867542266845703 
5.02293062210083 40.23428726196289 7.378293037414551 
-2.9971611499786377 43.199119567871094 7.996268272399902 
-10.611419677734375 46.14509963989258 8.753766059875488 
-17.86174774169922 48.98008728027344 9.67944622039795 
-24.761882781982422 51.587257385253906 10.737077713012695 
-31.294857025146484 53.83966827392578 11.82170295715332 
-37.42245864868164 55.63717269897461 12.803092002868652 
-43.09574508666992 56.933616638183594 13.589024543762207 
-48.27732849121094 57.742733001708984 14.176669120788574 
-52.957637786865234 58.123226165771484 14.636629104614258 
-57.144168853759766 58.147911071777344 15.029932975769043 
-60.85757827758789 57.88249206542969 15.344202995300293 
-64.14216613769531 57.38887405395508 15.513874053955078 
-67.05116271972656 56.74077224731445 15.496594429016113 
-69.61978149414062 56.03706741333008 15.330160140991211 
-71.8661117553711 55.39176559448242 15.107749938964844 
-73.8131103515625 54.88814926147461 14.883783340454102 
-75.50466918945312 54.535587310791016 14.609445571899414 
-77.00012969970703 54.276363372802734 14.170722007751465 
-78.34757232666016 54.02403259277344 13.493176460266113 
-79.56009674072266 53.69514465332031 12.616507530212402 
-80.62371826171875 53.228759765625 11.683439254760742 
-81.52542114257812 52.59086990356445 10.866642951965332 
-82.2737808227539 51.76413345336914 10.26915168762207 
-82.90252685546875 50.7416877746582 9.85453987121582 
-83.44892883300781 49.538089752197266 9.48330020904541 
-83.92454528808594 48.20928955078125 9.029607772827148 
-84.31302642822266 46.8569221496582 8.461339950561523 
-84.59133911132812 45.60593032836914 7.824349403381348 
-84.75706481933594 44.58161544799805 7.178722858428955 
-84.84070587158203 43.90480422973633 6.548505783081055 
-84.88091278076172 43.676353454589844 5.913177967071533 
-84.89200592041016 43.94315719604492 5.25560188293457 
-84.86843872070312 44.692745208740234 4.623680114746094 
-84.80780029296875 45.87660598754883 4.127293586730957 
-84.7060317993164 47.40980529785156 3.866314172744751 
-84.53646087646484 49.16011428833008 3.8619115352630615 
-84.2552490234375 50.974021911621094 4.048158645629883 
-83.82185363769531 52.71345138549805 4.321816921234131 
-83.19636535644531 54.25909423828125 4.615617752075195 
-82.33255004882812 55.50421142578125 4.943393230438232 
-81.21016693115234 56.36735916137695 5.371002674102783 
-79.88008880615234 56.80461120605469 5.934880256652832 
-78.45957946777344 56.80512619018555 6.583197116851807 
-77.08387756347656 56.3775749206543 7.191953659057617 
-75.85474395751953 55.537899017333984 7.651863098144531 
-74.80609893798828 54.30128479003906 7.947877407073975 
-73.906005859375 52.68437576293945 8.136262893676758 
-73.09288787841797 50.730323791503906 8.238430976867676 
-72.30590057373047 48.53689193725586 8.175742149353027 
-71.49212646484375 46.25490188598633 7.815158367156982 
-70.62427520751953 44.055389404296875 7.077476501464844 
-69.72744750976562 42.08383560180664 6.014583587646484 
-68.85816192626953 40.43742370605469 4.797231197357178 
-68.03970336914062 39.17393493652344 3.6322546005249023 
-67.23078918457031 38.31830978393555 2.672302484512329 
-66.35736846923828 37.86178207397461 1.967416524887085 
-65.36116027832031 37.771636962890625 1.4825530052185059 
-64.22379302978516 38.00629806518555 1.1656646728515625 
